record_name,start_idx,end_idx,r_peak_count
114,0,3600,9
114,3600,7200,9
114,7200,10800,9
114,10800,14400,9
114,14400,18000,9
114,18000,21600,9
114,21600,25200,9
114,25200,28800,9
114,28800,32400,9
114,32400,36000,10
114,36000,39600,9
114,39600,43200,9
114,43200,46800,9
114,46800,50400,9
114,50400,54000,9
114,54000,57600,9
114,57600,61200,9
114,61200,64800,9
114,64800,68400,9
114,68400,72000,9
114,72000,75600,9
114,75600,79200,9
114,79200,82800,9
114,82800,86400,9
114,86400,90000,9
114,90000,93600,9
114,93600,97200,9
114,97200,100800,9
114,100800,104400,9
114,104400,108000,9
114,108000,111600,9
114,111600,115200,10
114,115200,118800,9
114,118800,122400,10
114,122400,126000,9
114,126000,129600,10
114,129600,133200,9
114,133200,136800,10
114,136800,140400,9
114,140400,144000,9
114,144000,147600,10
114,147600,151200,8
114,151200,154800,9
114,154800,158400,9
114,158400,162000,9
114,162000,165600,8
114,165600,169200,9
114,169200,172800,9
114,172800,176400,9
114,176400,180000,8
114,180000,183600,9
114,183600,187200,9
114,187200,190800,10
114,190800,194400,9
114,194400,198000,9
114,198000,201600,9
114,201600,205200,10
114,205200,208800,9
114,208800,212400,10
114,212400,216000,10
114,216000,219600,10
114,219600,223200,11
114,223200,226800,11
114,226800,230400,10
114,230400,234000,10
114,234000,237600,10
114,237600,241200,10
114,241200,244800,10
114,244800,248400,9
114,248400,252000,10
114,252000,255600,12
114,255600,259200,9
114,259200,262800,9
114,262800,266400,10
114,266400,270000,9
114,270000,273600,10
114,273600,277200,10
114,277200,280800,10
114,280800,284400,10
114,284400,288000,10
114,288000,291600,10
114,291600,295200,10
114,295200,298800,10
114,298800,302400,10
114,302400,306000,9
114,306000,309600,9
114,309600,313200,10
114,313200,316800,10
114,316800,320400,10
114,320400,324000,10
114,324000,327600,11
114,327600,331200,10
114,331200,334800,10
114,334800,338400,10
114,338400,342000,11
114,342000,345600,10
114,345600,349200,10
114,349200,352800,10
114,352800,356400,10
114,356400,360000,10
114,360000,363600,11
114,363600,367200,10
114,367200,370800,11
114,370800,374400,10
114,374400,378000,10
114,378000,381600,11
114,381600,385200,10
114,385200,388800,10
114,388800,392400,10
114,392400,396000,10
114,396000,399600,11
114,399600,403200,10
114,403200,406800,10
114,406800,410400,11
114,410400,414000,11
114,414000,417600,10
114,417600,421200,11
114,421200,424800,11
114,424800,428400,10
114,428400,432000,10
114,432000,435600,11
114,435600,439200,11
114,439200,442800,10
114,442800,446400,10
114,446400,450000,11
114,450000,453600,12
114,453600,457200,11
114,457200,460800,11
114,460800,464400,11
114,464400,468000,11
114,468000,471600,12
114,471600,475200,11
114,475200,478800,11
114,478800,482400,11
114,482400,486000,12
114,486000,489600,11
114,489600,493200,11
114,493200,496800,11
114,496800,500400,11
114,500400,504000,11
114,504000,507600,12
114,507600,511200,11
114,511200,514800,11
114,514800,518400,11
114,518400,522000,11
114,522000,525600,11
114,525600,529200,11
114,529200,532800,11
114,532800,536400,11
114,536400,540000,11
114,540000,543600,11
114,543600,547200,11
114,547200,550800,12
114,550800,554400,11
114,554400,558000,12
114,558000,561600,11
114,561600,565200,12
114,565200,568800,12
114,568800,572400,11
114,572400,576000,12
114,576000,579600,12
114,579600,583200,12
114,583200,586800,12
114,586800,590400,12
114,590400,594000,11
114,594000,597600,11
114,597600,601200,12
114,601200,604800,11
114,604800,608400,11
114,608400,612000,11
114,612000,615600,12
114,615600,619200,11
114,619200,622800,11
114,622800,626400,11
114,626400,630000,11
114,630000,633600,12
114,633600,637200,12
114,637200,640800,11
114,640800,644400,12
114,644400,648000,13
118,0,3600,11
118,3600,7200,12
118,7200,10800,12
118,10800,14400,12
118,14400,18000,12
118,18000,21600,12
118,21600,25200,12
118,25200,28800,12
118,28800,32400,12
118,32400,36000,13
118,36000,39600,12
118,39600,43200,13
118,43200,46800,12
118,46800,50400,12
118,50400,54000,12
118,54000,57600,12
118,57600,61200,12
118,61200,64800,11
118,64800,68400,12
118,68400,72000,11
118,72000,75600,12
118,75600,79200,12
118,79200,82800,12
118,82800,86400,12
118,86400,90000,11
118,90000,93600,11
118,93600,97200,12
118,97200,100800,13
118,100800,104400,11
118,104400,108000,12
118,108000,111600,13
118,111600,115200,12
118,115200,118800,12
118,118800,122400,12
118,122400,126000,12
118,126000,129600,12
118,129600,133200,13
118,133200,136800,13
118,136800,140400,14
118,140400,144000,13
118,144000,147600,14
118,147600,151200,15
118,151200,154800,14
118,154800,158400,14
118,158400,162000,14
118,162000,165600,14
118,165600,169200,14
118,169200,172800,13
118,172800,176400,13
118,176400,180000,13
118,180000,183600,14
118,183600,187200,14
118,187200,190800,14
118,190800,194400,14
118,194400,198000,14
118,198000,201600,13
118,201600,205200,13
118,205200,208800,13
118,208800,212400,13
118,212400,216000,13
118,216000,219600,13
118,219600,223200,13
118,223200,226800,13
118,226800,230400,13
118,230400,234000,13
118,234000,237600,13
118,237600,241200,13
118,241200,244800,11
118,244800,248400,11
118,248400,252000,12
118,252000,255600,11
118,255600,259200,11
118,259200,262800,12
118,262800,266400,13
118,266400,270000,13
118,270000,273600,13
118,273600,277200,15
118,277200,280800,13
118,280800,284400,13
118,284400,288000,12
118,288000,291600,12
118,291600,295200,13
118,295200,298800,12
118,298800,302400,11
118,302400,306000,12
118,306000,309600,13
118,309600,313200,12
118,313200,316800,13
118,316800,320400,12
118,320400,324000,12
118,324000,327600,13
118,327600,331200,12
118,331200,334800,12
118,334800,338400,13
118,338400,342000,13
118,342000,345600,12
118,345600,349200,12
118,349200,352800,13
118,352800,356400,13
118,356400,360000,13
118,360000,363600,12
118,363600,367200,11
118,367200,370800,12
118,370800,374400,12
118,374400,378000,12
118,378000,381600,11
118,381600,385200,12
118,385200,388800,12
118,388800,392400,13
118,392400,396000,12
118,396000,399600,12
118,399600,403200,11
118,403200,406800,12
118,406800,410400,11
118,410400,414000,12
118,414000,417600,11
118,417600,421200,12
118,421200,424800,13
118,424800,428400,12
118,428400,432000,12
118,432000,435600,12
118,435600,439200,12
118,439200,442800,12
118,442800,446400,13
118,446400,450000,12
118,450000,453600,12
118,453600,457200,12
118,457200,460800,12
118,460800,464400,12
118,464400,468000,12
118,468000,471600,12
118,471600,475200,12
118,475200,478800,11
118,478800,482400,11
118,482400,486000,12
118,486000,489600,12
118,489600,493200,11
118,493200,496800,12
118,496800,500400,11
118,500400,504000,11
118,504000,507600,11
118,507600,511200,12
118,511200,514800,12
118,514800,518400,12
118,518400,522000,11
118,522000,525600,12
118,525600,529200,12
118,529200,532800,11
118,532800,536400,11
118,536400,540000,11
118,540000,543600,12
118,543600,547200,11
118,547200,550800,12
118,550800,554400,12
118,554400,558000,12
118,558000,561600,12
118,561600,565200,12
118,565200,568800,11
118,568800,572400,12
118,572400,576000,12
118,576000,579600,11
118,579600,583200,14
118,583200,586800,14
118,586800,590400,14
118,590400,594000,15
118,594000,597600,15
118,597600,601200,15
118,601200,604800,14
118,604800,608400,14
118,608400,612000,13
118,612000,615600,14
118,615600,619200,13
118,619200,622800,15
118,622800,626400,14
118,626400,630000,14
118,630000,633600,14
118,633600,637200,13
118,637200,640800,14
118,640800,644400,14
118,644400,648000,14
232,0,3600,9
232,3600,7200,9
232,7200,10800,8
232,10800,14400,12
232,14400,18000,8
232,18000,21600,9
232,21600,25200,9
232,25200,28800,10
232,28800,32400,9
232,32400,36000,11
232,36000,39600,8
232,39600,43200,8
232,43200,46800,11
232,46800,50400,11
232,50400,54000,10
232,54000,57600,10
232,57600,61200,9
232,61200,64800,9
232,64800,68400,9
232,68400,72000,9
232,72000,75600,9
232,75600,79200,9
232,79200,82800,13
232,82800,86400,12
232,86400,90000,10
232,90000,93600,9
232,93600,97200,9
232,97200,100800,10
232,100800,104400,8
232,104400,108000,11
232,108000,111600,10
232,111600,115200,8
232,115200,118800,10
232,118800,122400,10
232,122400,126000,12
232,126000,129600,8
232,129600,133200,10
232,133200,136800,11
232,136800,140400,10
232,140400,144000,10
232,144000,147600,11
232,147600,151200,10
232,151200,154800,9
232,154800,158400,11
232,158400,162000,11
232,162000,165600,11
232,165600,169200,8
232,169200,172800,10
232,172800,176400,12
232,176400,180000,11
232,180000,183600,10
232,183600,187200,9
232,187200,190800,11
232,190800,194400,11
232,194400,198000,9
232,198000,201600,11
232,201600,205200,10
232,205200,208800,10
232,208800,212400,11
232,212400,216000,10
232,216000,219600,12
232,219600,223200,10
232,223200,226800,8
232,226800,230400,8
232,230400,234000,9
232,234000,237600,10
232,237600,241200,11
232,241200,244800,11
232,244800,248400,14
232,248400,252000,14
232,252000,255600,11
232,255600,259200,12
232,259200,262800,10
232,262800,266400,11
232,266400,270000,9
232,270000,273600,11
232,273600,277200,10
232,277200,280800,9
232,280800,284400,10
232,284400,288000,10
232,288000,291600,12
232,291600,295200,9
232,295200,298800,8
232,298800,302400,10
232,302400,306000,10
232,306000,309600,11
232,309600,313200,9
232,313200,316800,8
232,316800,320400,9
232,320400,324000,10
232,324000,327600,11
232,327600,331200,10
232,331200,334800,10
232,334800,338400,11
232,338400,342000,9
232,342000,345600,8
232,345600,349200,9
232,349200,352800,10
232,352800,356400,18
232,356400,360000,8
232,360000,363600,11
232,363600,367200,9
232,367200,370800,9
232,370800,374400,11
232,374400,378000,11
232,378000,381600,6
232,381600,385200,10
232,385200,388800,10
232,388800,392400,10
232,392400,396000,8
232,396000,399600,8
232,399600,403200,8
232,403200,406800,12
232,406800,410400,9
232,410400,414000,9
232,414000,417600,8
232,417600,421200,12
232,421200,424800,10
232,424800,428400,8
232,428400,432000,11
232,432000,435600,10
232,435600,439200,9
232,439200,442800,11
232,442800,446400,7
232,446400,450000,12
232,450000,453600,7
232,453600,457200,10
232,457200,460800,10
232,460800,464400,6
232,464400,468000,8
232,468000,471600,11
232,471600,475200,8
232,475200,478800,13
232,478800,482400,9
232,482400,486000,8
232,486000,489600,8
232,489600,493200,11
232,493200,496800,6
232,496800,500400,10
232,500400,504000,12
232,504000,507600,7
232,507600,511200,11
232,511200,514800,9
232,514800,518400,4
232,518400,522000,10
232,522000,525600,11
232,525600,529200,11
232,529200,532800,12
232,532800,536400,7
232,536400,540000,10
232,540000,543600,10
232,543600,547200,8
232,547200,550800,13
232,550800,554400,9
232,554400,558000,10
232,558000,561600,10
232,561600,565200,11
232,565200,568800,13
232,568800,572400,9
232,572400,576000,9
232,576000,579600,9
232,579600,583200,10
232,583200,586800,8
232,586800,590400,11
232,590400,594000,10
232,594000,597600,9
232,597600,601200,11
232,601200,604800,10
232,604800,608400,8
232,608400,612000,12
232,612000,615600,6
232,615600,619200,4
232,619200,622800,13
232,622800,626400,11
232,626400,630000,10
232,630000,633600,11
232,633600,637200,10
232,637200,640800,10
232,640800,644400,9
232,644400,648000,12
116,0,3600,13
116,3600,7200,13
116,7200,10800,13
116,10800,14400,13
116,14400,18000,13
116,18000,21600,12
116,21600,25200,13
116,25200,28800,13
116,28800,32400,13
116,32400,36000,13
116,36000,39600,12
116,39600,43200,13
116,43200,46800,12
116,46800,50400,12
116,50400,54000,12
116,54000,57600,13
116,57600,61200,13
116,61200,64800,13
116,64800,68400,13
116,68400,72000,13
116,72000,75600,13
116,75600,79200,14
116,79200,82800,13
116,82800,86400,13
116,86400,90000,13
116,90000,93600,13
116,93600,97200,13
116,97200,100800,12
116,100800,104400,13
116,104400,108000,13
116,108000,111600,13
116,111600,115200,13
116,115200,118800,13
116,118800,122400,14
116,122400,126000,13
116,126000,129600,13
116,129600,133200,13
116,133200,136800,13
116,136800,140400,13
116,140400,144000,13
116,144000,147600,13
116,147600,151200,13
116,151200,154800,13
116,154800,158400,13
116,158400,162000,14
116,162000,165600,13
116,165600,169200,13
116,169200,172800,14
116,172800,176400,14
116,176400,180000,13
116,180000,183600,14
116,183600,187200,13
116,187200,190800,13
116,190800,194400,13
116,194400,198000,13
116,198000,201600,13
116,201600,205200,13
116,205200,208800,13
116,208800,212400,13
116,212400,216000,14
116,216000,219600,13
116,219600,223200,12
116,223200,226800,12
116,226800,230400,13
116,230400,234000,13
116,234000,237600,12
116,237600,241200,13
116,241200,244800,13
116,244800,248400,13
116,248400,252000,13
116,252000,255600,13
116,255600,259200,12
116,259200,262800,12
116,262800,266400,12
116,266400,270000,12
116,270000,273600,13
116,273600,277200,12
116,277200,280800,13
116,280800,284400,13
116,284400,288000,13
116,288000,291600,12
116,291600,295200,13
116,295200,298800,13
116,298800,302400,13
116,302400,306000,12
116,306000,309600,12
116,309600,313200,13
116,313200,316800,13
116,316800,320400,12
116,320400,324000,13
116,324000,327600,13
116,327600,331200,12
116,331200,334800,13
116,334800,338400,13
116,338400,342000,13
116,342000,345600,13
116,345600,349200,13
116,349200,352800,13
116,352800,356400,13
116,356400,360000,13
116,360000,363600,11
116,363600,367200,13
116,367200,370800,13
116,370800,374400,13
116,374400,378000,13
116,378000,381600,13
116,381600,385200,13
116,385200,388800,13
116,388800,392400,12
116,392400,396000,13
116,396000,399600,13
116,399600,403200,13
116,403200,406800,13
116,406800,410400,13
116,410400,414000,13
116,414000,417600,13
116,417600,421200,13
116,421200,424800,13
116,424800,428400,13
116,428400,432000,13
116,432000,435600,13
116,435600,439200,13
116,439200,442800,13
116,442800,446400,13
116,446400,450000,13
116,450000,453600,14
116,453600,457200,13
116,457200,460800,14
116,460800,464400,13
116,464400,468000,13
116,468000,471600,14
116,471600,475200,13
116,475200,478800,14
116,478800,482400,13
116,482400,486000,14
116,486000,489600,6
116,489600,493200,11
116,493200,496800,13
116,496800,500400,14
116,500400,504000,6
116,504000,507600,13
116,507600,511200,13
116,511200,514800,13
116,514800,518400,13
116,518400,522000,13
116,522000,525600,13
116,525600,529200,13
116,529200,532800,14
116,532800,536400,14
116,536400,540000,13
116,540000,543600,13
116,543600,547200,14
116,547200,550800,13
116,550800,554400,14
116,554400,558000,13
116,558000,561600,14
116,561600,565200,14
116,565200,568800,14
116,568800,572400,13
116,572400,576000,14
116,576000,579600,14
116,579600,583200,13
116,583200,586800,14
116,586800,590400,14
116,590400,594000,14
116,594000,597600,13
116,597600,601200,14
116,601200,604800,14
116,604800,608400,13
116,608400,612000,14
116,612000,615600,14
116,615600,619200,14
116,619200,622800,14
116,622800,626400,14
116,626400,630000,14
116,630000,633600,14
116,633600,637200,13
116,637200,640800,14
116,640800,644400,14
116,644400,648000,14
109,0,3600,16
109,3600,7200,16
109,7200,10800,15
109,10800,14400,14
109,14400,18000,14
109,18000,21600,14
109,21600,25200,14
109,25200,28800,14
109,28800,32400,14
109,32400,36000,14
109,36000,39600,14
109,39600,43200,14
109,43200,46800,13
109,46800,50400,14
109,50400,54000,14
109,54000,57600,15
109,57600,61200,14
109,61200,64800,14
109,64800,68400,15
109,68400,72000,14
109,72000,75600,14
109,75600,79200,14
109,79200,82800,14
109,82800,86400,14
109,86400,90000,15
109,90000,93600,14
109,93600,97200,13
109,97200,100800,14
109,100800,104400,14
109,104400,108000,14
109,108000,111600,14
109,111600,115200,14
109,115200,118800,14
109,118800,122400,14
109,122400,126000,15
109,126000,129600,15
109,129600,133200,14
109,133200,136800,13
109,136800,140400,13
109,140400,144000,14
109,144000,147600,14
109,147600,151200,14
109,151200,154800,14
109,154800,158400,15
109,158400,162000,14
109,162000,165600,14
109,165600,169200,14
109,169200,172800,14
109,172800,176400,14
109,176400,180000,14
109,180000,183600,14
109,183600,187200,13
109,187200,190800,14
109,190800,194400,14
109,194400,198000,14
109,198000,201600,14
109,201600,205200,13
109,205200,208800,13
109,208800,212400,14
109,212400,216000,14
109,216000,219600,14
109,219600,223200,14
109,223200,226800,13
109,226800,230400,13
109,230400,234000,13
109,234000,237600,13
109,237600,241200,14
109,241200,244800,14
109,244800,248400,13
109,248400,252000,13
109,252000,255600,14
109,255600,259200,14
109,259200,262800,14
109,262800,266400,14
109,266400,270000,13
109,270000,273600,13
109,273600,277200,13
109,277200,280800,13
109,280800,284400,14
109,284400,288000,14
109,288000,291600,14
109,291600,295200,13
109,295200,298800,13
109,298800,302400,13
109,302400,306000,13
109,306000,309600,14
109,309600,313200,14
109,313200,316800,13
109,316800,320400,13
109,320400,324000,13
109,324000,327600,14
109,327600,331200,14
109,331200,334800,14
109,334800,338400,14
109,338400,342000,13
109,342000,345600,14
109,345600,349200,14
109,349200,352800,14
109,352800,356400,14
109,356400,360000,13
109,360000,363600,14
109,363600,367200,14
109,367200,370800,14
109,370800,374400,14
109,374400,378000,14
109,378000,381600,13
109,381600,385200,13
109,385200,388800,13
109,388800,392400,13
109,392400,396000,14
109,396000,399600,14
109,399600,403200,14
109,403200,406800,14
109,406800,410400,14
109,410400,414000,14
109,414000,417600,14
109,417600,421200,13
109,421200,424800,14
109,424800,428400,13
109,428400,432000,13
109,432000,435600,13
109,435600,439200,13
109,439200,442800,13
109,442800,446400,14
109,446400,450000,14
109,450000,453600,14
109,453600,457200,14
109,457200,460800,14
109,460800,464400,14
109,464400,468000,14
109,468000,471600,14
109,471600,475200,14
109,475200,478800,14
109,478800,482400,14
109,482400,486000,14
109,486000,489600,14
109,489600,493200,14
109,493200,496800,14
109,496800,500400,14
109,500400,504000,14
109,504000,507600,14
109,507600,511200,14
109,511200,514800,14
109,514800,518400,14
109,518400,522000,14
109,522000,525600,14
109,525600,529200,14
109,529200,532800,15
109,532800,536400,14
109,536400,540000,14
109,540000,543600,13
109,543600,547200,13
109,547200,550800,14
109,550800,554400,13
109,554400,558000,13
109,558000,561600,14
109,561600,565200,13
109,565200,568800,17
109,568800,572400,14
109,572400,576000,14
109,576000,579600,14
109,579600,583200,13
109,583200,586800,13
109,586800,590400,14
109,590400,594000,13
109,594000,597600,13
109,597600,601200,13
109,601200,604800,13
109,604800,608400,14
109,608400,612000,13
109,612000,615600,13
109,615600,619200,13
109,619200,622800,14
109,622800,626400,13
109,626400,630000,13
109,630000,633600,14
109,633600,637200,13
109,637200,640800,14
109,640800,644400,14
109,644400,648000,14
117,0,3600,9
117,3600,7200,8
117,7200,10800,8
117,10800,14400,9
117,14400,18000,8
117,18000,21600,8
117,21600,25200,8
117,25200,28800,9
117,28800,32400,8
117,32400,36000,8
117,36000,39600,8
117,39600,43200,8
117,43200,46800,8
117,46800,50400,8
117,50400,54000,8
117,54000,57600,8
117,57600,61200,7
117,61200,64800,8
117,64800,68400,8
117,68400,72000,9
117,72000,75600,8
117,75600,79200,9
117,79200,82800,8
117,82800,86400,9
117,86400,90000,8
117,90000,93600,8
117,93600,97200,9
117,97200,100800,8
117,100800,104400,9
117,104400,108000,8
117,108000,111600,8
117,111600,115200,8
117,115200,118800,8
117,118800,122400,8
117,122400,126000,9
117,126000,129600,8
117,129600,133200,9
117,133200,136800,8
117,136800,140400,8
117,140400,144000,8
117,144000,147600,8
117,147600,151200,9
117,151200,154800,8
117,154800,158400,8
117,158400,162000,9
117,162000,165600,8
117,165600,169200,9
117,169200,172800,8
117,172800,176400,9
117,176400,180000,8
117,180000,183600,9
117,183600,187200,8
117,187200,190800,9
117,190800,194400,8
117,194400,198000,9
117,198000,201600,8
117,201600,205200,8
117,205200,208800,8
117,208800,212400,8
117,212400,216000,9
117,216000,219600,8
117,219600,223200,8
117,223200,226800,8
117,226800,230400,8
117,230400,234000,9
117,234000,237600,9
117,237600,241200,8
117,241200,244800,9
117,244800,248400,8
117,248400,252000,8
117,252000,255600,8
117,255600,259200,9
117,259200,262800,11
117,262800,266400,10
117,266400,270000,8
117,270000,273600,9
117,273600,277200,8
117,277200,280800,8
117,280800,284400,8
117,284400,288000,8
117,288000,291600,9
117,291600,295200,8
117,295200,298800,8
117,298800,302400,9
117,302400,306000,8
117,306000,309600,8
117,309600,313200,8
117,313200,316800,9
117,316800,320400,8
117,320400,324000,9
117,324000,327600,8
117,327600,331200,8
117,331200,334800,8
117,334800,338400,8
117,338400,342000,8
117,342000,345600,9
117,345600,349200,8
117,349200,352800,9
117,352800,356400,8
117,356400,360000,8
117,360000,363600,8
117,363600,367200,10
117,367200,370800,8
117,370800,374400,8
117,374400,378000,9
117,378000,381600,8
117,381600,385200,8
117,385200,388800,8
117,388800,392400,9
117,392400,396000,8
117,396000,399600,9
117,399600,403200,8
117,403200,406800,8
117,406800,410400,8
117,410400,414000,8
117,414000,417600,9
117,417600,421200,8
117,421200,424800,9
117,424800,428400,8
117,428400,432000,9
117,432000,435600,8
117,435600,439200,9
117,439200,442800,8
117,442800,446400,8
117,446400,450000,8
117,450000,453600,8
117,453600,457200,8
117,457200,460800,8
117,460800,464400,8
117,464400,468000,8
117,468000,471600,8
117,471600,475200,8
117,475200,478800,9
117,478800,482400,8
117,482400,486000,9
117,486000,489600,8
117,489600,493200,9
117,493200,496800,8
117,496800,500400,9
117,500400,504000,8
117,504000,507600,9
117,507600,511200,8
117,511200,514800,9
117,514800,518400,8
117,518400,522000,9
117,522000,525600,8
117,525600,529200,9
117,529200,532800,9
117,532800,536400,8
117,536400,540000,9
117,540000,543600,8
117,543600,547200,8
117,547200,550800,8
117,550800,554400,8
117,554400,558000,9
117,558000,561600,8
117,561600,565200,9
117,565200,568800,8
117,568800,572400,9
117,572400,576000,8
117,576000,579600,8
117,579600,583200,9
117,583200,586800,8
117,586800,590400,9
117,590400,594000,8
117,594000,597600,9
117,597600,601200,8
117,601200,604800,9
117,604800,608400,9
117,608400,612000,8
117,612000,615600,9
117,615600,619200,8
117,619200,622800,8
117,622800,626400,8
117,626400,630000,8
117,630000,633600,8
117,633600,637200,8
117,637200,640800,9
117,640800,644400,8
117,644400,648000,9
208,0,3600,14
208,3600,7200,16
208,7200,10800,16
208,10800,14400,16
208,14400,18000,14
208,18000,21600,15
208,21600,25200,12
208,25200,28800,11
208,28800,32400,14
208,32400,36000,14
208,36000,39600,12
208,39600,43200,8
208,43200,46800,16
208,46800,50400,11
208,50400,54000,8
208,54000,57600,10
208,57600,61200,15
208,61200,64800,11
208,64800,68400,16
208,68400,72000,16
208,72000,75600,13
208,75600,79200,10
208,79200,82800,14
208,82800,86400,14
208,86400,90000,12
208,90000,93600,13
208,93600,97200,13
208,97200,100800,11
208,100800,104400,11
208,104400,108000,13
208,108000,111600,10
208,111600,115200,11
208,115200,118800,15
208,118800,122400,14
208,122400,126000,15
208,126000,129600,17
208,129600,133200,19
208,133200,136800,17
208,136800,140400,15
208,140400,144000,12
208,144000,147600,11
208,147600,151200,11
208,151200,154800,16
208,154800,158400,16
208,158400,162000,15
208,162000,165600,16
208,165600,169200,14
208,169200,172800,15
208,172800,176400,15
208,176400,180000,15
208,180000,183600,14
208,183600,187200,14
208,187200,190800,16
208,190800,194400,16
208,194400,198000,16
208,198000,201600,15
208,201600,205200,16
208,205200,208800,15
208,208800,212400,15
208,212400,216000,16
208,216000,219600,15
208,219600,223200,17
208,223200,226800,12
208,226800,230400,16
208,230400,234000,13
208,234000,237600,12
208,237600,241200,15
208,241200,244800,17
208,244800,248400,15
208,248400,252000,13
208,252000,255600,15
208,255600,259200,16
208,259200,262800,16
208,262800,266400,14
208,266400,270000,16
208,270000,273600,15
208,273600,277200,16
208,277200,280800,15
208,280800,284400,14
208,284400,288000,11
208,288000,291600,16
208,291600,295200,16
208,295200,298800,16
208,298800,302400,16
208,302400,306000,15
208,306000,309600,12
208,309600,313200,16
208,313200,316800,9
208,316800,320400,17
208,320400,324000,14
208,324000,327600,18
208,327600,331200,11
208,331200,334800,14
208,334800,338400,10
208,338400,342000,10
208,342000,345600,13
208,345600,349200,15
208,349200,352800,8
208,352800,356400,11
208,356400,360000,15
208,360000,363600,9
208,363600,367200,11
208,367200,370800,15
208,370800,374400,9
208,374400,378000,10
208,378000,381600,16
208,381600,385200,10
208,385200,388800,11
208,388800,392400,9
208,392400,396000,10
208,396000,399600,10
208,399600,403200,12
208,403200,406800,9
208,406800,410400,9
208,410400,414000,11
208,414000,417600,10
208,417600,421200,10
208,421200,424800,15
208,424800,428400,21
208,428400,432000,19
208,432000,435600,18
208,435600,439200,14
208,439200,442800,17
208,442800,446400,18
208,446400,450000,15
208,450000,453600,12
208,453600,457200,15
208,457200,460800,13
208,460800,464400,14
208,464400,468000,17
208,468000,471600,17
208,471600,475200,10
208,475200,478800,15
208,478800,482400,13
208,482400,486000,13
208,486000,489600,15
208,489600,493200,16
208,493200,496800,11
208,496800,500400,5
208,500400,504000,11
208,504000,507600,11
208,507600,511200,14
208,511200,514800,12
208,514800,518400,12
208,518400,522000,10
208,522000,525600,14
208,525600,529200,14
208,529200,532800,12
208,532800,536400,15
208,536400,540000,14
208,540000,543600,13
208,543600,547200,13
208,547200,550800,15
208,550800,554400,14
208,554400,558000,13
208,558000,561600,16
208,561600,565200,10
208,565200,568800,10
208,568800,572400,10
208,572400,576000,9
208,576000,579600,11
208,579600,583200,16
208,583200,586800,14
208,586800,590400,12
208,590400,594000,9
208,594000,597600,10
208,597600,601200,13
208,601200,604800,9
208,604800,608400,10
208,608400,612000,15
208,612000,615600,9
208,615600,619200,8
208,619200,622800,14
208,622800,626400,13
208,626400,630000,14
208,630000,633600,15
208,633600,637200,15
208,637200,640800,10
208,640800,644400,15
208,644400,648000,14
212,0,3600,15
212,3600,7200,15
212,7200,10800,15
212,10800,14400,15
212,14400,18000,14
212,18000,21600,15
212,21600,25200,14
212,25200,28800,14
212,28800,32400,15
212,32400,36000,15
212,36000,39600,16
212,39600,43200,14
212,43200,46800,16
212,46800,50400,15
212,50400,54000,16
212,54000,57600,16
212,57600,61200,16
212,61200,64800,16
212,64800,68400,15
212,68400,72000,14
212,72000,75600,15
212,75600,79200,15
212,79200,82800,16
212,82800,86400,15
212,86400,90000,15
212,90000,93600,15
212,93600,97200,15
212,97200,100800,16
212,100800,104400,16
212,104400,108000,15
212,108000,111600,15
212,111600,115200,15
212,115200,118800,15
212,118800,122400,15
212,122400,126000,16
212,126000,129600,16
212,129600,133200,16
212,133200,136800,15
212,136800,140400,15
212,140400,144000,16
212,144000,147600,15
212,147600,151200,15
212,151200,154800,17
212,154800,158400,16
212,158400,162000,16
212,162000,165600,15
212,165600,169200,15
212,169200,172800,15
212,172800,176400,15
212,176400,180000,16
212,180000,183600,15
212,183600,187200,15
212,187200,190800,15
212,190800,194400,15
212,194400,198000,15
212,198000,201600,16
212,201600,205200,16
212,205200,208800,16
212,208800,212400,15
212,212400,216000,15
212,216000,219600,15
212,219600,223200,15
212,223200,226800,15
212,226800,230400,17
212,230400,234000,16
212,234000,237600,15
212,237600,241200,16
212,241200,244800,16
212,244800,248400,15
212,248400,252000,16
212,252000,255600,15
212,255600,259200,15
212,259200,262800,16
212,262800,266400,15
212,266400,270000,16
212,270000,273600,16
212,273600,277200,16
212,277200,280800,15
212,280800,284400,15
212,284400,288000,15
212,288000,291600,16
212,291600,295200,16
212,295200,298800,16
212,298800,302400,15
212,302400,306000,15
212,306000,309600,15
212,309600,313200,16
212,313200,316800,15
212,316800,320400,15
212,320400,324000,15
212,324000,327600,15
212,327600,331200,15
212,331200,334800,15
212,334800,338400,16
212,338400,342000,15
212,342000,345600,15
212,345600,349200,15
212,349200,352800,14
212,352800,356400,15
212,356400,360000,14
212,360000,363600,14
212,363600,367200,16
212,367200,370800,16
212,370800,374400,15
212,374400,378000,16
212,378000,381600,15
212,381600,385200,16
212,385200,388800,16
212,388800,392400,16
212,392400,396000,15
212,396000,399600,15
212,399600,403200,15
212,403200,406800,15
212,406800,410400,15
212,410400,414000,15
212,414000,417600,15
212,417600,421200,15
212,421200,424800,15
212,424800,428400,15
212,428400,432000,15
212,432000,435600,16
212,435600,439200,14
212,439200,442800,15
212,442800,446400,15
212,446400,450000,15
212,450000,453600,14
212,453600,457200,15
212,457200,460800,15
212,460800,464400,15
212,464400,468000,15
212,468000,471600,15
212,471600,475200,15
212,475200,478800,15
212,478800,482400,14
212,482400,486000,13
212,486000,489600,14
212,489600,493200,14
212,493200,496800,15
212,496800,500400,15
212,500400,504000,15
212,504000,507600,15
212,507600,511200,15
212,511200,514800,15
212,514800,518400,15
212,518400,522000,14
212,522000,525600,15
212,525600,529200,14
212,529200,532800,13
212,532800,536400,13
212,536400,540000,14
212,540000,543600,15
212,543600,547200,15
212,547200,550800,14
212,550800,554400,15
212,554400,558000,14
212,558000,561600,14
212,561600,565200,15
212,565200,568800,14
212,568800,572400,14
212,572400,576000,14
212,576000,579600,15
212,579600,583200,14
212,583200,586800,14
212,586800,590400,15
212,590400,594000,14
212,594000,597600,14
212,597600,601200,14
212,601200,604800,14
212,604800,608400,15
212,608400,612000,14
212,612000,615600,15
212,615600,619200,15
212,619200,622800,14
212,622800,626400,15
212,626400,630000,15
212,630000,633600,15
212,633600,637200,14
212,637200,640800,14
212,640800,644400,13
212,644400,648000,14
233,0,3600,16
233,3600,7200,17
233,7200,10800,16
233,10800,14400,17
233,14400,18000,17
233,18000,21600,18
233,21600,25200,17
233,25200,28800,17
233,28800,32400,18
233,32400,36000,17
233,36000,39600,17
233,39600,43200,17
233,43200,46800,17
233,46800,50400,17
233,50400,54000,17
233,54000,57600,17
233,57600,61200,17
233,61200,64800,17
233,64800,68400,18
233,68400,72000,17
233,72000,75600,17
233,75600,79200,17
233,79200,82800,17
233,82800,86400,17
233,86400,90000,17
233,90000,93600,17
233,93600,97200,17
233,97200,100800,17
233,100800,104400,17
233,104400,108000,16
233,108000,111600,15
233,111600,115200,17
233,115200,118800,17
233,118800,122400,16
233,122400,126000,15
233,126000,129600,16
233,129600,133200,17
233,133200,136800,17
233,136800,140400,16
233,140400,144000,17
233,144000,147600,17
233,147600,151200,16
233,151200,154800,17
233,154800,158400,17
233,158400,162000,16
233,162000,165600,17
233,165600,169200,16
233,169200,172800,16
233,172800,176400,16
233,176400,180000,15
233,180000,183600,17
233,183600,187200,17
233,187200,190800,16
233,190800,194400,17
233,194400,198000,17
233,198000,201600,17
233,201600,205200,17
233,205200,208800,16
233,208800,212400,16
233,212400,216000,17
233,216000,219600,16
233,219600,223200,16
233,223200,226800,17
233,226800,230400,16
233,230400,234000,17
233,234000,237600,17
233,237600,241200,16
233,241200,244800,17
233,244800,248400,17
233,248400,252000,16
233,252000,255600,16
233,255600,259200,16
233,259200,262800,17
233,262800,266400,16
233,266400,270000,16
233,270000,273600,16
233,273600,277200,17
233,277200,280800,17
233,280800,284400,17
233,284400,288000,17
233,288000,291600,17
233,291600,295200,17
233,295200,298800,17
233,298800,302400,17
233,302400,306000,16
233,306000,309600,16
233,309600,313200,17
233,313200,316800,16
233,316800,320400,16
233,320400,324000,16
233,324000,327600,16
233,327600,331200,17
233,331200,334800,17
233,334800,338400,17
233,338400,342000,17
233,342000,345600,18
233,345600,349200,17
233,349200,352800,16
233,352800,356400,17
233,356400,360000,18
233,360000,363600,16
233,363600,367200,17
233,367200,370800,17
233,370800,374400,17
233,374400,378000,18
233,378000,381600,17
233,381600,385200,16
233,385200,388800,17
233,388800,392400,17
233,392400,396000,17
233,396000,399600,17
233,399600,403200,16
233,403200,406800,17
233,406800,410400,17
233,410400,414000,17
233,414000,417600,17
233,417600,421200,17
233,421200,424800,17
233,424800,428400,17
233,428400,432000,17
233,432000,435600,17
233,435600,439200,15
233,439200,442800,16
233,442800,446400,15
233,446400,450000,16
233,450000,453600,17
233,453600,457200,16
233,457200,460800,16
233,460800,464400,16
233,464400,468000,16
233,468000,471600,17
233,471600,475200,16
233,475200,478800,16
233,478800,482400,17
233,482400,486000,17
233,486000,489600,16
233,489600,493200,17
233,493200,496800,17
233,496800,500400,16
233,500400,504000,16
233,504000,507600,16
233,507600,511200,16
233,511200,514800,16
233,514800,518400,16
233,518400,522000,17
233,522000,525600,17
233,525600,529200,17
233,529200,532800,16
233,532800,536400,16
233,536400,540000,16
233,540000,543600,17
233,543600,547200,16
233,547200,550800,17
233,550800,554400,16
233,554400,558000,16
233,558000,561600,17
233,561600,565200,17
233,565200,568800,16
233,568800,572400,17
233,572400,576000,17
233,576000,579600,17
233,579600,583200,17
233,583200,586800,17
233,586800,590400,16
233,590400,594000,16
233,594000,597600,16
233,597600,601200,16
233,601200,604800,16
233,604800,608400,16
233,608400,612000,16
233,612000,615600,17
233,615600,619200,16
233,619200,622800,16
233,622800,626400,17
233,626400,630000,17
233,630000,633600,17
233,633600,637200,16
233,637200,640800,17
233,640800,644400,16
233,644400,648000,16
100,0,3600,13
100,3600,7200,12
100,7200,10800,12
100,10800,14400,12
100,14400,18000,12
100,18000,21600,12
100,21600,25200,12
100,25200,28800,12
100,28800,32400,12
100,32400,36000,12
100,36000,39600,12
100,39600,43200,12
100,43200,46800,13
100,46800,50400,12
100,50400,54000,13
100,54000,57600,12
100,57600,61200,12
100,61200,64800,12
100,64800,68400,13
100,68400,72000,12
100,72000,75600,12
100,75600,79200,12
100,79200,82800,12
100,82800,86400,12
100,86400,90000,13
100,90000,93600,12
100,93600,97200,12
100,97200,100800,13
100,100800,104400,12
100,104400,108000,12
100,108000,111600,13
100,111600,115200,12
100,115200,118800,13
100,118800,122400,12
100,122400,126000,13
100,126000,129600,13
100,129600,133200,14
100,133200,136800,13
100,136800,140400,13
100,140400,144000,13
100,144000,147600,13
100,147600,151200,13
100,151200,154800,13
100,154800,158400,13
100,158400,162000,14
100,162000,165600,13
100,165600,169200,13
100,169200,172800,13
100,172800,176400,12
100,176400,180000,13
100,180000,183600,13
100,183600,187200,12
100,187200,190800,12
100,190800,194400,12
100,194400,198000,13
100,198000,201600,13
100,201600,205200,13
100,205200,208800,12
100,208800,212400,12
100,212400,216000,13
100,216000,219600,13
100,219600,223200,12
100,223200,226800,12
100,226800,230400,13
100,230400,234000,13
100,234000,237600,13
100,237600,241200,13
100,241200,244800,14
100,244800,248400,13
100,248400,252000,13
100,252000,255600,12
100,255600,259200,13
100,259200,262800,14
100,262800,266400,12
100,266400,270000,13
100,270000,273600,12
100,273600,277200,13
100,277200,280800,12
100,280800,284400,12
100,284400,288000,13
100,288000,291600,12
100,291600,295200,13
100,295200,298800,12
100,298800,302400,13
100,302400,306000,12
100,306000,309600,12
100,309600,313200,13
100,313200,316800,12
100,316800,320400,12
100,320400,324000,12
100,324000,327600,13
100,327600,331200,12
100,331200,334800,12
100,334800,338400,12
100,338400,342000,12
100,342000,345600,12
100,345600,349200,12
100,349200,352800,12
100,352800,356400,12
100,356400,360000,13
100,360000,363600,12
100,363600,367200,12
100,367200,370800,12
100,370800,374400,13
100,374400,378000,12
100,378000,381600,12
100,381600,385200,12
100,385200,388800,12
100,388800,392400,12
100,392400,396000,13
100,396000,399600,12
100,399600,403200,12
100,403200,406800,12
100,406800,410400,12
100,410400,414000,13
100,414000,417600,12
100,417600,421200,13
100,421200,424800,12
100,424800,428400,12
100,428400,432000,12
100,432000,435600,12
100,435600,439200,13
100,439200,442800,12
100,442800,446400,12
100,446400,450000,12
100,450000,453600,13
100,453600,457200,12
100,457200,460800,12
100,460800,464400,13
100,464400,468000,12
100,468000,471600,12
100,471600,475200,12
100,475200,478800,13
100,478800,482400,12
100,482400,486000,13
100,486000,489600,12
100,489600,493200,12
100,493200,496800,13
100,496800,500400,12
100,500400,504000,12
100,504000,507600,13
100,507600,511200,12
100,511200,514800,12
100,514800,518400,12
100,518400,522000,12
100,522000,525600,12
100,525600,529200,12
100,529200,532800,12
100,532800,536400,12
100,536400,540000,12
100,540000,543600,12
100,543600,547200,13
100,547200,550800,12
100,550800,554400,12
100,554400,558000,13
100,558000,561600,12
100,561600,565200,13
100,565200,568800,12
100,568800,572400,12
100,572400,576000,12
100,576000,579600,12
100,579600,583200,12
100,583200,586800,14
100,586800,590400,13
100,590400,594000,13
100,594000,597600,12
100,597600,601200,14
100,601200,604800,13
100,604800,608400,13
100,608400,612000,13
100,612000,615600,12
100,615600,619200,13
100,619200,622800,12
100,622800,626400,12
100,626400,630000,12
100,630000,633600,13
100,633600,637200,13
100,637200,640800,12
100,640800,644400,13
100,644400,648000,14
210,0,3600,15
210,3600,7200,15
210,7200,10800,14
210,10800,14400,14
210,14400,18000,14
210,18000,21600,15
210,21600,25200,14
210,25200,28800,14
210,28800,32400,15
210,32400,36000,15
210,36000,39600,15
210,39600,43200,15
210,43200,46800,15
210,46800,50400,14
210,50400,54000,14
210,54000,57600,13
210,57600,61200,14
210,61200,64800,14
210,64800,68400,14
210,68400,72000,15
210,72000,75600,14
210,75600,79200,15
210,79200,82800,15
210,82800,86400,15
210,86400,90000,14
210,90000,93600,13
210,93600,97200,13
210,97200,100800,14
210,100800,104400,14
210,104400,108000,15
210,108000,111600,15
210,111600,115200,15
210,115200,118800,15
210,118800,122400,14
210,122400,126000,14
210,126000,129600,15
210,129600,133200,13
210,133200,136800,14
210,136800,140400,14
210,140400,144000,14
210,144000,147600,15
210,147600,151200,14
210,151200,154800,14
210,154800,158400,14
210,158400,162000,14
210,162000,165600,14
210,165600,169200,14
210,169200,172800,14
210,172800,176400,13
210,176400,180000,14
210,180000,183600,14
210,183600,187200,14
210,187200,190800,14
210,190800,194400,14
210,194400,198000,13
210,198000,201600,15
210,201600,205200,15
210,205200,208800,14
210,208800,212400,14
210,212400,216000,13
210,216000,219600,15
210,219600,223200,14
210,223200,226800,13
210,226800,230400,14
210,230400,234000,16
210,234000,237600,13
210,237600,241200,14
210,241200,244800,14
210,244800,248400,14
210,248400,252000,13
210,252000,255600,14
210,255600,259200,15
210,259200,262800,15
210,262800,266400,14
210,266400,270000,14
210,270000,273600,15
210,273600,277200,14
210,277200,280800,16
210,280800,284400,14
210,284400,288000,15
210,288000,291600,15
210,291600,295200,14
210,295200,298800,15
210,298800,302400,14
210,302400,306000,15
210,306000,309600,15
210,309600,313200,14
210,313200,316800,14
210,316800,320400,15
210,320400,324000,14
210,324000,327600,15
210,327600,331200,15
210,331200,334800,14
210,334800,338400,13
210,338400,342000,15
210,342000,345600,15
210,345600,349200,17
210,349200,352800,14
210,352800,356400,15
210,356400,360000,14
210,360000,363600,13
210,363600,367200,15
210,367200,370800,15
210,370800,374400,14
210,374400,378000,14
210,378000,381600,15
210,381600,385200,15
210,385200,388800,13
210,388800,392400,16
210,392400,396000,14
210,396000,399600,15
210,399600,403200,13
210,403200,406800,14
210,406800,410400,13
210,410400,414000,14
210,414000,417600,14
210,417600,421200,14
210,421200,424800,13
210,424800,428400,15
210,428400,432000,14
210,432000,435600,13
210,435600,439200,15
210,439200,442800,15
210,442800,446400,14
210,446400,450000,14
210,450000,453600,14
210,453600,457200,14
210,457200,460800,16
210,460800,464400,13
210,464400,468000,14
210,468000,471600,15
210,471600,475200,14
210,475200,478800,14
210,478800,482400,15
210,482400,486000,13
210,486000,489600,14
210,489600,493200,13
210,493200,496800,14
210,496800,500400,15
210,500400,504000,15
210,504000,507600,15
210,507600,511200,14
210,511200,514800,15
210,514800,518400,15
210,518400,522000,14
210,522000,525600,14
210,525600,529200,14
210,529200,532800,15
210,532800,536400,14
210,536400,540000,14
210,540000,543600,14
210,543600,547200,13
210,547200,550800,15
210,550800,554400,13
210,554400,558000,13
210,558000,561600,14
210,561600,565200,15
210,565200,568800,14
210,568800,572400,13
210,572400,576000,13
210,576000,579600,15
210,579600,583200,14
210,583200,586800,14
210,586800,590400,15
210,590400,594000,14
210,594000,597600,13
210,597600,601200,16
210,601200,604800,15
210,604800,608400,14
210,608400,612000,14
210,612000,615600,15
210,615600,619200,14
210,619200,622800,15
210,622800,626400,14
210,626400,630000,14
210,630000,633600,14
210,633600,637200,11
210,637200,640800,15
210,640800,644400,14
210,644400,648000,15
209,0,3600,15
209,3600,7200,15
209,7200,10800,15
209,10800,14400,15
209,14400,18000,15
209,18000,21600,16
209,21600,25200,16
209,25200,28800,16
209,28800,32400,16
209,32400,36000,15
209,36000,39600,16
209,39600,43200,16
209,43200,46800,15
209,46800,50400,15
209,50400,54000,16
209,54000,57600,16
209,57600,61200,16
209,61200,64800,16
209,64800,68400,15
209,68400,72000,16
209,72000,75600,16
209,75600,79200,15
209,79200,82800,16
209,82800,86400,16
209,86400,90000,16
209,90000,93600,17
209,93600,97200,18
209,97200,100800,18
209,100800,104400,18
209,104400,108000,19
209,108000,111600,18
209,111600,115200,18
209,115200,118800,18
209,118800,122400,18
209,122400,126000,18
209,126000,129600,18
209,129600,133200,18
209,133200,136800,18
209,136800,140400,18
209,140400,144000,18
209,144000,147600,17
209,147600,151200,17
209,151200,154800,23
209,154800,158400,17
209,158400,162000,16
209,162000,165600,15
209,165600,169200,16
209,169200,172800,15
209,172800,176400,16
209,176400,180000,15
209,180000,183600,16
209,183600,187200,15
209,187200,190800,15
209,190800,194400,16
209,194400,198000,15
209,198000,201600,20
209,201600,205200,26
209,205200,208800,26
209,208800,212400,19
209,212400,216000,17
209,216000,219600,26
209,219600,223200,27
209,223200,226800,17
209,226800,230400,15
209,230400,234000,16
209,234000,237600,16
209,237600,241200,16
209,241200,244800,16
209,244800,248400,16
209,248400,252000,16
209,252000,255600,16
209,255600,259200,17
209,259200,262800,15
209,262800,266400,22
209,266400,270000,26
209,270000,273600,17
209,273600,277200,17
209,277200,280800,17
209,280800,284400,15
209,284400,288000,23
209,288000,291600,18
209,291600,295200,16
209,295200,298800,15
209,298800,302400,15
209,302400,306000,16
209,306000,309600,16
209,309600,313200,21
209,313200,316800,16
209,316800,320400,16
209,320400,324000,16
209,324000,327600,16
209,327600,331200,16
209,331200,334800,16
209,334800,338400,15
209,338400,342000,16
209,342000,345600,16
209,345600,349200,15
209,349200,352800,15
209,352800,356400,16
209,356400,360000,15
209,360000,363600,15
209,363600,367200,16
209,367200,370800,15
209,370800,374400,15
209,374400,378000,16
209,378000,381600,15
209,381600,385200,15
209,385200,388800,16
209,388800,392400,16
209,392400,396000,15
209,396000,399600,16
209,399600,403200,15
209,403200,406800,15
209,406800,410400,16
209,410400,414000,16
209,414000,417600,16
209,417600,421200,16
209,421200,424800,15
209,424800,428400,16
209,428400,432000,16
209,432000,435600,16
209,435600,439200,15
209,439200,442800,15
209,442800,446400,16
209,446400,450000,16
209,450000,453600,17
209,453600,457200,15
209,457200,460800,16
209,460800,464400,17
209,464400,468000,15
209,468000,471600,16
209,471600,475200,16
209,475200,478800,15
209,478800,482400,16
209,482400,486000,16
209,486000,489600,15
209,489600,493200,16
209,493200,496800,15
209,496800,500400,16
209,500400,504000,16
209,504000,507600,16
209,507600,511200,16
209,511200,514800,15
209,514800,518400,16
209,518400,522000,15
209,522000,525600,15
209,525600,529200,16
209,529200,532800,16
209,532800,536400,16
209,536400,540000,15
209,540000,543600,15
209,543600,547200,16
209,547200,550800,16
209,550800,554400,17
209,554400,558000,16
209,558000,561600,16
209,561600,565200,15
209,565200,568800,16
209,568800,572400,16
209,572400,576000,15
209,576000,579600,16
209,579600,583200,17
209,583200,586800,16
209,586800,590400,16
209,590400,594000,17
209,594000,597600,16
209,597600,601200,17
209,601200,604800,17
209,604800,608400,16
209,608400,612000,17
209,612000,615600,16
209,615600,619200,19
209,619200,622800,18
209,622800,626400,16
209,626400,630000,15
209,630000,633600,17
209,633600,637200,15
209,637200,640800,15
209,640800,644400,15
209,644400,648000,16
105,0,3600,14
105,3600,7200,13
105,7200,10800,13
105,10800,14400,14
105,14400,18000,14
105,18000,21600,14
105,21600,25200,14
105,25200,28800,13
105,28800,32400,13
105,32400,36000,14
105,36000,39600,14
105,39600,43200,14
105,43200,46800,14
105,46800,50400,13
105,50400,54000,13
105,54000,57600,14
105,57600,61200,13
105,61200,64800,14
105,64800,68400,14
105,68400,72000,14
105,72000,75600,14
105,75600,79200,14
105,79200,82800,14
105,82800,86400,14
105,86400,90000,14
105,90000,93600,14
105,93600,97200,13
105,97200,100800,13
105,100800,104400,14
105,104400,108000,14
105,108000,111600,13
105,111600,115200,14
105,115200,118800,14
105,118800,122400,14
105,122400,126000,14
105,126000,129600,13
105,129600,133200,13
105,133200,136800,13
105,136800,140400,14
105,140400,144000,14
105,144000,147600,14
105,147600,151200,13
105,151200,154800,13
105,154800,158400,13
105,158400,162000,13
105,162000,165600,14
105,165600,169200,14
105,169200,172800,14
105,172800,176400,14
105,176400,180000,15
105,180000,183600,14
105,183600,187200,13
105,187200,190800,13
105,190800,194400,13
105,194400,198000,14
105,198000,201600,14
105,201600,205200,14
105,205200,208800,14
105,208800,212400,13
105,212400,216000,14
105,216000,219600,14
105,219600,223200,13
105,223200,226800,13
105,226800,230400,15
105,230400,234000,14
105,234000,237600,13
105,237600,241200,14
105,241200,244800,14
105,244800,248400,14
105,248400,252000,14
105,252000,255600,14
105,255600,259200,13
105,259200,262800,14
105,262800,266400,13
105,266400,270000,13
105,270000,273600,14
105,273600,277200,13
105,277200,280800,13
105,280800,284400,14
105,284400,288000,14
105,288000,291600,14
105,291600,295200,14
105,295200,298800,14
105,298800,302400,14
105,302400,306000,14
105,306000,309600,14
105,309600,313200,14
105,313200,316800,14
105,316800,320400,14
105,320400,324000,14
105,324000,327600,14
105,327600,331200,14
105,331200,334800,13
105,334800,338400,13
105,338400,342000,13
105,342000,345600,14
105,345600,349200,13
105,349200,352800,13
105,352800,356400,14
105,356400,360000,13
105,360000,363600,13
105,363600,367200,14
105,367200,370800,15
105,370800,374400,15
105,374400,378000,14
105,378000,381600,14
105,381600,385200,15
105,385200,388800,14
105,388800,392400,14
105,392400,396000,14
105,396000,399600,14
105,399600,403200,14
105,403200,406800,14
105,406800,410400,14
105,410400,414000,15
105,414000,417600,13
105,417600,421200,14
105,421200,424800,14
105,424800,428400,14
105,428400,432000,15
105,432000,435600,18
105,435600,439200,18
105,439200,442800,17
105,442800,446400,18
105,446400,450000,18
105,450000,453600,16
105,453600,457200,17
105,457200,460800,16
105,460800,464400,16
105,464400,468000,15
105,468000,471600,17
105,471600,475200,16
105,475200,478800,22
105,478800,482400,17
105,482400,486000,15
105,486000,489600,15
105,489600,493200,15
105,493200,496800,15
105,496800,500400,15
105,500400,504000,15
105,504000,507600,15
105,507600,511200,15
105,511200,514800,15
105,514800,518400,16
105,518400,522000,15
105,522000,525600,15
105,525600,529200,14
105,529200,532800,14
105,532800,536400,15
105,536400,540000,15
105,540000,543600,15
105,543600,547200,14
105,547200,550800,14
105,550800,554400,15
105,554400,558000,15
105,558000,561600,14
105,561600,565200,14
105,565200,568800,14
105,568800,572400,14
105,572400,576000,14
105,576000,579600,14
105,579600,583200,14
105,583200,586800,15
105,586800,590400,14
105,590400,594000,14
105,594000,597600,17
105,597600,601200,16
105,601200,604800,14
105,604800,608400,14
105,608400,612000,17
105,612000,615600,14
105,615600,619200,16
105,619200,622800,14
105,622800,626400,15
105,626400,630000,14
105,630000,633600,15
105,633600,637200,14
105,637200,640800,14
105,640800,644400,14
105,644400,648000,14
112,0,3600,14
112,3600,7200,14
112,7200,10800,14
112,10800,14400,14
112,14400,18000,14
112,18000,21600,13
112,21600,25200,14
112,25200,28800,14
112,28800,32400,14
112,32400,36000,14
112,36000,39600,14
112,39600,43200,14
112,43200,46800,14
112,46800,50400,13
112,50400,54000,14
112,54000,57600,14
112,57600,61200,14
112,61200,64800,14
112,64800,68400,13
112,68400,72000,13
112,72000,75600,13
112,75600,79200,14
112,79200,82800,14
112,82800,86400,14
112,86400,90000,14
112,90000,93600,14
112,93600,97200,15
112,97200,100800,14
112,100800,104400,14
112,104400,108000,14
112,108000,111600,15
112,111600,115200,14
112,115200,118800,14
112,118800,122400,14
112,122400,126000,14
112,126000,129600,14
112,129600,133200,14
112,133200,136800,14
112,136800,140400,14
112,140400,144000,14
112,144000,147600,14
112,147600,151200,13
112,151200,154800,13
112,154800,158400,14
112,158400,162000,14
112,162000,165600,14
112,165600,169200,14
112,169200,172800,14
112,172800,176400,14
112,176400,180000,14
112,180000,183600,14
112,183600,187200,14
112,187200,190800,13
112,190800,194400,13
112,194400,198000,14
112,198000,201600,14
112,201600,205200,14
112,205200,208800,14
112,208800,212400,15
112,212400,216000,14
112,216000,219600,14
112,219600,223200,14
112,223200,226800,14
112,226800,230400,14
112,230400,234000,14
112,234000,237600,14
112,237600,241200,14
112,241200,244800,14
112,244800,248400,14
112,248400,252000,14
112,252000,255600,12
112,255600,259200,14
112,259200,262800,14
112,262800,266400,15
112,266400,270000,14
112,270000,273600,14
112,273600,277200,14
112,277200,280800,14
112,280800,284400,15
112,284400,288000,14
112,288000,291600,15
112,291600,295200,15
112,295200,298800,15
112,298800,302400,15
112,302400,306000,15
112,306000,309600,14
112,309600,313200,14
112,313200,316800,14
112,316800,320400,14
112,320400,324000,14
112,324000,327600,14
112,327600,331200,14
112,331200,334800,14
112,334800,338400,14
112,338400,342000,14
112,342000,345600,13
112,345600,349200,14
112,349200,352800,14
112,352800,356400,14
112,356400,360000,14
112,360000,363600,14
112,363600,367200,14
112,367200,370800,14
112,370800,374400,14
112,374400,378000,14
112,378000,381600,14
112,381600,385200,14
112,385200,388800,13
112,388800,392400,14
112,392400,396000,14
112,396000,399600,15
112,399600,403200,14
112,403200,406800,13
112,406800,410400,13
112,410400,414000,14
112,414000,417600,14
112,417600,421200,14
112,421200,424800,14
112,424800,428400,13
112,428400,432000,13
112,432000,435600,14
112,435600,439200,13
112,439200,442800,13
112,442800,446400,13
112,446400,450000,14
112,450000,453600,13
112,453600,457200,13
112,457200,460800,13
112,460800,464400,13
112,464400,468000,14
112,468000,471600,14
112,471600,475200,13
112,475200,478800,14
112,478800,482400,13
112,482400,486000,13
112,486000,489600,14
112,489600,493200,14
112,493200,496800,13
112,496800,500400,13
112,500400,504000,13
112,504000,507600,14
112,507600,511200,13
112,511200,514800,14
112,514800,518400,14
112,518400,522000,13
112,522000,525600,13
112,525600,529200,14
112,529200,532800,13
112,532800,536400,14
112,536400,540000,13
112,540000,543600,13
112,543600,547200,13
112,547200,550800,13
112,550800,554400,13
112,554400,558000,13
112,558000,561600,14
112,561600,565200,13
112,565200,568800,13
112,568800,572400,13
112,572400,576000,13
112,576000,579600,14
112,579600,583200,14
112,583200,586800,14
112,586800,590400,14
112,590400,594000,13
112,594000,597600,13
112,597600,601200,14
112,601200,604800,14
112,604800,608400,14
112,608400,612000,14
112,612000,615600,13
112,615600,619200,13
112,619200,622800,13
112,622800,626400,13
112,626400,630000,13
112,630000,633600,13
112,633600,637200,14
112,637200,640800,14
112,640800,644400,13
112,644400,648000,13
214,0,3600,11
214,3600,7200,13
214,7200,10800,13
214,10800,14400,12
214,14400,18000,12
214,18000,21600,13
214,21600,25200,12
214,25200,28800,13
214,28800,32400,14
214,32400,36000,13
214,36000,39600,13
214,39600,43200,12
214,43200,46800,12
214,46800,50400,13
214,50400,54000,13
214,54000,57600,12
214,57600,61200,12
214,61200,64800,12
214,64800,68400,12
214,68400,72000,13
214,72000,75600,13
214,75600,79200,9
214,79200,82800,13
214,82800,86400,13
214,86400,90000,11
214,90000,93600,13
214,93600,97200,11
214,97200,100800,11
214,100800,104400,12
214,104400,108000,11
214,108000,111600,13
214,111600,115200,10
214,115200,118800,13
214,118800,122400,12
214,122400,126000,13
214,126000,129600,13
214,129600,133200,12
214,133200,136800,12
214,136800,140400,13
214,140400,144000,11
214,144000,147600,13
214,147600,151200,11
214,151200,154800,11
214,154800,158400,13
214,158400,162000,12
214,162000,165600,12
214,165600,169200,13
214,169200,172800,13
214,172800,176400,11
214,176400,180000,11
214,180000,183600,12
214,183600,187200,13
214,187200,190800,13
214,190800,194400,13
214,194400,198000,13
214,198000,201600,14
214,201600,205200,13
214,205200,208800,13
214,208800,212400,14
214,212400,216000,12
214,216000,219600,12
214,219600,223200,13
214,223200,226800,12
214,226800,230400,11
214,230400,234000,12
214,234000,237600,13
214,237600,241200,12
214,241200,244800,12
214,244800,248400,11
214,248400,252000,12
214,252000,255600,12
214,255600,259200,13
214,259200,262800,12
214,262800,266400,13
214,266400,270000,12
214,270000,273600,11
214,273600,277200,13
214,277200,280800,13
214,280800,284400,11
214,284400,288000,12
214,288000,291600,12
214,291600,295200,13
214,295200,298800,12
214,298800,302400,12
214,302400,306000,13
214,306000,309600,12
214,309600,313200,12
214,313200,316800,12
214,316800,320400,13
214,320400,324000,12
214,324000,327600,10
214,327600,331200,12
214,331200,334800,13
214,334800,338400,11
214,338400,342000,11
214,342000,345600,12
214,345600,349200,13
214,349200,352800,12
214,352800,356400,12
214,356400,360000,13
214,360000,363600,12
214,363600,367200,12
214,367200,370800,12
214,370800,374400,13
214,374400,378000,11
214,378000,381600,12
214,381600,385200,12
214,385200,388800,13
214,388800,392400,14
214,392400,396000,12
214,396000,399600,12
214,399600,403200,13
214,403200,406800,12
214,406800,410400,11
214,410400,414000,11
214,414000,417600,13
214,417600,421200,12
214,421200,424800,13
214,424800,428400,14
214,428400,432000,12
214,432000,435600,11
214,435600,439200,11
214,439200,442800,11
214,442800,446400,12
214,446400,450000,13
214,450000,453600,12
214,453600,457200,14
214,457200,460800,13
214,460800,464400,12
214,464400,468000,12
214,468000,471600,13
214,471600,475200,13
214,475200,478800,12
214,478800,482400,11
214,482400,486000,11
214,486000,489600,11
214,489600,493200,12
214,493200,496800,11
214,496800,500400,12
214,500400,504000,14
214,504000,507600,12
214,507600,511200,11
214,511200,514800,13
214,514800,518400,14
214,518400,522000,12
214,522000,525600,12
214,525600,529200,13
214,529200,532800,12
214,532800,536400,13
214,536400,540000,12
214,540000,543600,13
214,543600,547200,13
214,547200,550800,12
214,550800,554400,11
214,554400,558000,11
214,558000,561600,13
214,561600,565200,14
214,565200,568800,13
214,568800,572400,13
214,572400,576000,12
214,576000,579600,12
214,579600,583200,12
214,583200,586800,11
214,586800,590400,12
214,590400,594000,12
214,594000,597600,12
214,597600,601200,12
214,601200,604800,13
214,604800,608400,13
214,608400,612000,13
214,612000,615600,14
214,615600,619200,14
214,619200,622800,12
214,622800,626400,13
214,626400,630000,12
214,630000,633600,12
214,633600,637200,13
214,637200,640800,13
214,640800,644400,12
214,644400,648000,13
101,0,3600,11
101,3600,7200,11
101,7200,10800,11
101,10800,14400,13
101,14400,18000,12
101,18000,21600,12
101,21600,25200,11
101,25200,28800,11
101,28800,32400,12
101,32400,36000,12
101,36000,39600,11
101,39600,43200,12
101,43200,46800,13
101,46800,50400,12
101,50400,54000,13
101,54000,57600,12
101,57600,61200,11
101,61200,64800,12
101,64800,68400,11
101,68400,72000,11
101,72000,75600,11
101,75600,79200,11
101,79200,82800,11
101,82800,86400,11
101,86400,90000,10
101,90000,93600,11
101,93600,97200,10
101,97200,100800,11
101,100800,104400,10
101,104400,108000,11
101,108000,111600,10
101,111600,115200,11
101,115200,118800,10
101,118800,122400,11
101,122400,126000,10
101,126000,129600,10
101,129600,133200,11
101,133200,136800,11
101,136800,140400,9
101,140400,144000,9
101,144000,147600,10
101,147600,151200,10
101,151200,154800,10
101,154800,158400,10
101,158400,162000,9
101,162000,165600,10
101,165600,169200,10
101,169200,172800,10
101,172800,176400,10
101,176400,180000,10
101,180000,183600,10
101,183600,187200,10
101,187200,190800,10
101,190800,194400,11
101,194400,198000,10
101,198000,201600,11
101,201600,205200,10
101,205200,208800,10
101,208800,212400,10
101,212400,216000,10
101,216000,219600,10
101,219600,223200,10
101,223200,226800,10
101,226800,230400,10
101,230400,234000,10
101,234000,237600,9
101,237600,241200,10
101,241200,244800,10
101,244800,248400,10
101,248400,252000,10
101,252000,255600,10
101,255600,259200,9
101,259200,262800,10
101,262800,266400,10
101,266400,270000,10
101,270000,273600,10
101,273600,277200,10
101,277200,280800,10
101,280800,284400,9
101,284400,288000,9
101,288000,291600,9
101,291600,295200,10
101,295200,298800,9
101,298800,302400,11
101,302400,306000,9
101,306000,309600,10
101,309600,313200,9
101,313200,316800,10
101,316800,320400,10
101,320400,324000,9
101,324000,327600,11
101,327600,331200,10
101,331200,334800,10
101,334800,338400,11
101,338400,342000,10
101,342000,345600,10
101,345600,349200,10
101,349200,352800,11
101,352800,356400,10
101,356400,360000,10
101,360000,363600,10
101,363600,367200,10
101,367200,370800,10
101,370800,374400,10
101,374400,378000,10
101,378000,381600,10
101,381600,385200,10
101,385200,388800,10
101,388800,392400,10
101,392400,396000,10
101,396000,399600,10
101,399600,403200,10
101,403200,406800,10
101,406800,410400,10
101,410400,414000,10
101,414000,417600,10
101,417600,421200,10
101,421200,424800,10
101,424800,428400,10
101,428400,432000,10
101,432000,435600,11
101,435600,439200,10
101,439200,442800,10
101,442800,446400,11
101,446400,450000,10
101,450000,453600,10
101,453600,457200,11
101,457200,460800,10
101,460800,464400,10
101,464400,468000,11
101,468000,471600,10
101,471600,475200,10
101,475200,478800,10
101,478800,482400,10
101,482400,486000,10
101,486000,489600,10
101,489600,493200,11
101,493200,496800,10
101,496800,500400,11
101,500400,504000,10
101,504000,507600,11
101,507600,511200,10
101,511200,514800,10
101,514800,518400,10
101,518400,522000,10
101,522000,525600,10
101,525600,529200,10
101,529200,532800,9
101,532800,536400,10
101,536400,540000,10
101,540000,543600,10
101,543600,547200,10
101,547200,550800,9
101,550800,554400,10
101,554400,558000,10
101,558000,561600,10
101,561600,565200,10
101,565200,568800,10
101,568800,572400,10
101,572400,576000,10
101,576000,579600,10
101,579600,583200,9
101,583200,586800,9
101,586800,590400,9
101,590400,594000,10
101,594000,597600,10
101,597600,601200,10
101,601200,604800,10
101,604800,608400,11
101,608400,612000,10
101,612000,615600,10
101,615600,619200,10
101,619200,622800,10
101,622800,626400,10
101,626400,630000,10
101,630000,633600,10
101,633600,637200,9
101,637200,640800,10
101,640800,644400,10
101,644400,648000,10
231,0,3600,10
231,3600,7200,11
231,7200,10800,10
231,10800,14400,11
231,14400,18000,10
231,18000,21600,11
231,21600,25200,11
231,25200,28800,10
231,28800,32400,11
231,32400,36000,8
231,36000,39600,6
231,39600,43200,6
231,43200,46800,6
231,46800,50400,6
231,50400,54000,7
231,54000,57600,11
231,57600,61200,10
231,61200,64800,10
231,64800,68400,10
231,68400,72000,10
231,72000,75600,10
231,75600,79200,10
231,79200,82800,11
231,82800,86400,11
231,86400,90000,10
231,90000,93600,11
231,93600,97200,10
231,97200,100800,10
231,100800,104400,11
231,104400,108000,10
231,108000,111600,11
231,111600,115200,10
231,115200,118800,11
231,118800,122400,7
231,122400,126000,6
231,126000,129600,6
231,129600,133200,6
231,133200,136800,6
231,136800,140400,6
231,140400,144000,6
231,144000,147600,6
231,147600,151200,6
231,151200,154800,6
231,154800,158400,6
231,158400,162000,6
231,162000,165600,6
231,165600,169200,6
231,169200,172800,6
231,172800,176400,6
231,176400,180000,6
231,180000,183600,6
231,183600,187200,6
231,187200,190800,6
231,190800,194400,6
231,194400,198000,6
231,198000,201600,6
231,201600,205200,10
231,205200,208800,11
231,208800,212400,10
231,212400,216000,10
231,216000,219600,10
231,219600,223200,11
231,223200,226800,10
231,226800,230400,10
231,230400,234000,10
231,234000,237600,10
231,237600,241200,10
231,241200,244800,10
231,244800,248400,10
231,248400,252000,11
231,252000,255600,11
231,255600,259200,10
231,259200,262800,10
231,262800,266400,11
231,266400,270000,10
231,270000,273600,11
231,273600,277200,11
231,277200,280800,10
231,280800,284400,10
231,284400,288000,10
231,288000,291600,6
231,291600,295200,6
231,295200,298800,6
231,298800,302400,6
231,302400,306000,6
231,306000,309600,6
231,309600,313200,6
231,313200,316800,6
231,316800,320400,6
231,320400,324000,6
231,324000,327600,6
231,327600,331200,6
231,331200,334800,6
231,334800,338400,6
231,338400,342000,6
231,342000,345600,6
231,345600,349200,6
231,349200,352800,6
231,352800,356400,6
231,356400,360000,6
231,360000,363600,6
231,363600,367200,6
231,367200,370800,6
231,370800,374400,6
231,374400,378000,8
231,378000,381600,9
231,381600,385200,11
231,385200,388800,10
231,388800,392400,11
231,392400,396000,10
231,396000,399600,11
231,399600,403200,10
231,403200,406800,11
231,406800,410400,11
231,410400,414000,10
231,414000,417600,10
231,417600,421200,11
231,421200,424800,10
231,424800,428400,10
231,428400,432000,10
231,432000,435600,8
231,435600,439200,6
231,439200,442800,6
231,442800,446400,6
231,446400,450000,8
231,450000,453600,10
231,453600,457200,10
231,457200,460800,8
231,460800,464400,6
231,464400,468000,6
231,468000,471600,6
231,471600,475200,6
231,475200,478800,6
231,478800,482400,6
231,482400,486000,6
231,486000,489600,6
231,489600,493200,6
231,493200,496800,6
231,496800,500400,6
231,500400,504000,6
231,504000,507600,6
231,507600,511200,10
231,511200,514800,11
231,514800,518400,10
231,518400,522000,10
231,522000,525600,10
231,525600,529200,10
231,529200,532800,10
231,532800,536400,10
231,536400,540000,10
231,540000,543600,10
231,543600,547200,10
231,547200,550800,10
231,550800,554400,10
231,554400,558000,11
231,558000,561600,10
231,561600,565200,10
231,565200,568800,11
231,568800,572400,10
231,572400,576000,11
231,576000,579600,9
231,579600,583200,10
231,583200,586800,10
231,586800,590400,10
231,590400,594000,10
231,594000,597600,10
231,597600,601200,10
231,601200,604800,10
231,604800,608400,11
231,608400,612000,10
231,612000,615600,10
231,615600,619200,11
231,619200,622800,10
231,622800,626400,10
231,626400,630000,10
231,630000,633600,10
231,633600,637200,10
231,637200,640800,10
231,640800,644400,10
231,644400,648000,10
123,0,3600,8
123,3600,7200,8
123,7200,10800,8
123,10800,14400,7
123,14400,18000,9
123,18000,21600,9
123,21600,25200,8
123,25200,28800,9
123,28800,32400,9
123,32400,36000,8
123,36000,39600,9
123,39600,43200,8
123,43200,46800,8
123,46800,50400,9
123,50400,54000,8
123,54000,57600,8
123,57600,61200,8
123,61200,64800,8
123,64800,68400,9
123,68400,72000,7
123,72000,75600,8
123,75600,79200,8
123,79200,82800,8
123,82800,86400,8
123,86400,90000,8
123,90000,93600,8
123,93600,97200,8
123,97200,100800,9
123,100800,104400,8
123,104400,108000,8
123,108000,111600,8
123,111600,115200,8
123,115200,118800,8
123,118800,122400,8
123,122400,126000,9
123,126000,129600,8
123,129600,133200,8
123,133200,136800,9
123,136800,140400,9
123,140400,144000,8
123,144000,147600,8
123,147600,151200,9
123,151200,154800,9
123,154800,158400,9
123,158400,162000,8
123,162000,165600,9
123,165600,169200,8
123,169200,172800,9
123,172800,176400,9
123,176400,180000,9
123,180000,183600,7
123,183600,187200,8
123,187200,190800,8
123,190800,194400,9
123,194400,198000,9
123,198000,201600,10
123,201600,205200,8
123,205200,208800,9
123,208800,212400,7
123,212400,216000,9
123,216000,219600,8
123,219600,223200,8
123,223200,226800,8
123,226800,230400,8
123,230400,234000,8
123,234000,237600,8
123,237600,241200,9
123,241200,244800,8
123,244800,248400,8
123,248400,252000,8
123,252000,255600,9
123,255600,259200,8
123,259200,262800,9
123,262800,266400,8
123,266400,270000,8
123,270000,273600,8
123,273600,277200,10
123,277200,280800,8
123,280800,284400,8
123,284400,288000,8
123,288000,291600,9
123,291600,295200,8
123,295200,298800,8
123,298800,302400,8
123,302400,306000,8
123,306000,309600,8
123,309600,313200,9
123,313200,316800,8
123,316800,320400,8
123,320400,324000,8
123,324000,327600,8
123,327600,331200,8
123,331200,334800,8
123,334800,338400,8
123,338400,342000,8
123,342000,345600,8
123,345600,349200,9
123,349200,352800,8
123,352800,356400,8
123,356400,360000,8
123,360000,363600,9
123,363600,367200,8
123,367200,370800,9
123,370800,374400,8
123,374400,378000,9
123,378000,381600,9
123,381600,385200,7
123,385200,388800,8
123,388800,392400,8
123,392400,396000,8
123,396000,399600,9
123,399600,403200,8
123,403200,406800,8
123,406800,410400,8
123,410400,414000,9
123,414000,417600,8
123,417600,421200,8
123,421200,424800,9
123,424800,428400,8
123,428400,432000,9
123,432000,435600,8
123,435600,439200,9
123,439200,442800,8
123,442800,446400,8
123,446400,450000,8
123,450000,453600,8
123,453600,457200,9
123,457200,460800,8
123,460800,464400,8
123,464400,468000,8
123,468000,471600,8
123,471600,475200,8
123,475200,478800,9
123,478800,482400,8
123,482400,486000,10
123,486000,489600,7
123,489600,493200,7
123,493200,496800,8
123,496800,500400,8
123,500400,504000,8
123,504000,507600,9
123,507600,511200,8
123,511200,514800,8
123,514800,518400,9
123,518400,522000,9
123,522000,525600,9
123,525600,529200,9
123,529200,532800,8
123,532800,536400,8
123,536400,540000,8
123,540000,543600,8
123,543600,547200,8
123,547200,550800,9
123,550800,554400,8
123,554400,558000,9
123,558000,561600,8
123,561600,565200,8
123,565200,568800,9
123,568800,572400,8
123,572400,576000,8
123,576000,579600,9
123,579600,583200,7
123,583200,586800,8
123,586800,590400,9
123,590400,594000,8
123,594000,597600,8
123,597600,601200,9
123,601200,604800,8
123,604800,608400,8
123,608400,612000,8
123,612000,615600,9
123,615600,619200,9
123,619200,622800,8
123,622800,626400,8
123,626400,630000,8
123,630000,633600,8
123,633600,637200,9
123,637200,640800,9
123,640800,644400,9
123,644400,648000,9
102,0,3600,12
102,3600,7200,12
102,7200,10800,12
102,10800,14400,11
102,14400,18000,12
102,18000,21600,12
102,21600,25200,12
102,25200,28800,12
102,28800,32400,12
102,32400,36000,12
102,36000,39600,12
102,39600,43200,12
102,43200,46800,12
102,46800,50400,12
102,50400,54000,12
102,54000,57600,12
102,57600,61200,12
102,61200,64800,12
102,64800,68400,12
102,68400,72000,12
102,72000,75600,11
102,75600,79200,12
102,79200,82800,12
102,82800,86400,12
102,86400,90000,12
102,90000,93600,12
102,93600,97200,12
102,97200,100800,12
102,100800,104400,12
102,104400,108000,12
102,108000,111600,12
102,111600,115200,11
102,115200,118800,11
102,118800,122400,12
102,122400,126000,12
102,126000,129600,12
102,129600,133200,12
102,133200,136800,12
102,136800,140400,12
102,140400,144000,12
102,144000,147600,12
102,147600,151200,12
102,151200,154800,12
102,154800,158400,12
102,158400,162000,12
102,162000,165600,12
102,165600,169200,12
102,169200,172800,12
102,172800,176400,12
102,176400,180000,12
102,180000,183600,12
102,183600,187200,12
102,187200,190800,12
102,190800,194400,11
102,194400,198000,11
102,198000,201600,12
102,201600,205200,12
102,205200,208800,12
102,208800,212400,12
102,212400,216000,12
102,216000,219600,12
102,219600,223200,12
102,223200,226800,11
102,226800,230400,12
102,230400,234000,12
102,234000,237600,12
102,237600,241200,12
102,241200,244800,12
102,244800,248400,12
102,248400,252000,12
102,252000,255600,12
102,255600,259200,12
102,259200,262800,12
102,262800,266400,11
102,266400,270000,11
102,270000,273600,12
102,273600,277200,12
102,277200,280800,12
102,280800,284400,12
102,284400,288000,12
102,288000,291600,12
102,291600,295200,12
102,295200,298800,12
102,298800,302400,12
102,302400,306000,12
102,306000,309600,13
102,309600,313200,12
102,313200,316800,12
102,316800,320400,12
102,320400,324000,12
102,324000,327600,12
102,327600,331200,12
102,331200,334800,12
102,334800,338400,12
102,338400,342000,12
102,342000,345600,11
102,345600,349200,12
102,349200,352800,12
102,352800,356400,12
102,356400,360000,12
102,360000,363600,12
102,363600,367200,12
102,367200,370800,12
102,370800,374400,12
102,374400,378000,12
102,378000,381600,12
102,381600,385200,12
102,385200,388800,12
102,388800,392400,11
102,392400,396000,12
102,396000,399600,12
102,399600,403200,12
102,403200,406800,12
102,406800,410400,12
102,410400,414000,12
102,414000,417600,12
102,417600,421200,12
102,421200,424800,12
102,424800,428400,12
102,428400,432000,11
102,432000,435600,12
102,435600,439200,12
102,439200,442800,12
102,442800,446400,12
102,446400,450000,12
102,450000,453600,12
102,453600,457200,12
102,457200,460800,12
102,460800,464400,12
102,464400,468000,12
102,468000,471600,11
102,471600,475200,11
102,475200,478800,12
102,478800,482400,12
102,482400,486000,12
102,486000,489600,12
102,489600,493200,12
102,493200,496800,12
102,496800,500400,12
102,500400,504000,12
102,504000,507600,12
102,507600,511200,12
102,511200,514800,12
102,514800,518400,12
102,518400,522000,12
102,522000,525600,12
102,525600,529200,12
102,529200,532800,12
102,532800,536400,12
102,536400,540000,11
102,540000,543600,11
102,543600,547200,12
102,547200,550800,12
102,550800,554400,12
102,554400,558000,12
102,558000,561600,12
102,561600,565200,12
102,565200,568800,11
102,568800,572400,11
102,572400,576000,12
102,576000,579600,12
102,579600,583200,12
102,583200,586800,12
102,586800,590400,12
102,590400,594000,12
102,594000,597600,12
102,597600,601200,12
102,601200,604800,12
102,604800,608400,12
102,608400,612000,11
102,612000,615600,12
102,615600,619200,12
102,619200,622800,12
102,622800,626400,12
102,626400,630000,12
102,630000,633600,12
102,633600,637200,12
102,637200,640800,12
102,640800,644400,12
102,644400,648000,12
217,0,3600,12
217,3600,7200,12
217,7200,10800,12
217,10800,14400,12
217,14400,18000,12
217,18000,21600,12
217,21600,25200,12
217,25200,28800,12
217,28800,32400,13
217,32400,36000,12
217,36000,39600,12
217,39600,43200,12
217,43200,46800,12
217,46800,50400,12
217,50400,54000,11
217,54000,57600,11
217,57600,61200,12
217,61200,64800,12
217,64800,68400,12
217,68400,72000,11
217,72000,75600,12
217,75600,79200,12
217,79200,82800,12
217,82800,86400,12
217,86400,90000,12
217,90000,93600,12
217,93600,97200,13
217,97200,100800,12
217,100800,104400,12
217,104400,108000,12
217,108000,111600,11
217,111600,115200,12
217,115200,118800,12
217,118800,122400,12
217,122400,126000,12
217,126000,129600,12
217,129600,133200,12
217,133200,136800,12
217,136800,140400,12
217,140400,144000,12
217,144000,147600,12
217,147600,151200,13
217,151200,154800,12
217,154800,158400,13
217,158400,162000,12
217,162000,165600,13
217,165600,169200,12
217,169200,172800,12
217,172800,176400,12
217,176400,180000,12
217,180000,183600,12
217,183600,187200,12
217,187200,190800,12
217,190800,194400,12
217,194400,198000,12
217,198000,201600,12
217,201600,205200,12
217,205200,208800,12
217,208800,212400,12
217,212400,216000,12
217,216000,219600,12
217,219600,223200,12
217,223200,226800,12
217,226800,230400,11
217,230400,234000,11
217,234000,237600,11
217,237600,241200,11
217,241200,244800,12
217,244800,248400,12
217,248400,252000,12
217,252000,255600,13
217,255600,259200,12
217,259200,262800,12
217,262800,266400,12
217,266400,270000,12
217,270000,273600,12
217,273600,277200,12
217,277200,280800,12
217,280800,284400,12
217,284400,288000,14
217,288000,291600,13
217,291600,295200,13
217,295200,298800,12
217,298800,302400,13
217,302400,306000,10
217,306000,309600,13
217,309600,313200,12
217,313200,316800,12
217,316800,320400,13
217,320400,324000,12
217,324000,327600,13
217,327600,331200,13
217,331200,334800,13
217,334800,338400,14
217,338400,342000,13
217,342000,345600,13
217,345600,349200,13
217,349200,352800,13
217,352800,356400,14
217,356400,360000,14
217,360000,363600,13
217,363600,367200,13
217,367200,370800,14
217,370800,374400,14
217,374400,378000,12
217,378000,381600,13
217,381600,385200,13
217,385200,388800,12
217,388800,392400,13
217,392400,396000,13
217,396000,399600,12
217,399600,403200,11
217,403200,406800,12
217,406800,410400,12
217,410400,414000,12
217,414000,417600,12
217,417600,421200,12
217,421200,424800,11
217,424800,428400,12
217,428400,432000,12
217,432000,435600,12
217,435600,439200,12
217,439200,442800,12
217,442800,446400,11
217,446400,450000,12
217,450000,453600,12
217,453600,457200,12
217,457200,460800,12
217,460800,464400,12
217,464400,468000,12
217,468000,471600,12
217,471600,475200,11
217,475200,478800,11
217,478800,482400,12
217,482400,486000,13
217,486000,489600,14
217,489600,493200,13
217,493200,496800,11
217,496800,500400,11
217,500400,504000,13
217,504000,507600,12
217,507600,511200,12
217,511200,514800,12
217,514800,518400,12
217,518400,522000,11
217,522000,525600,13
217,525600,529200,12
217,529200,532800,12
217,532800,536400,12
217,536400,540000,12
217,540000,543600,12
217,543600,547200,13
217,547200,550800,12
217,550800,554400,12
217,554400,558000,12
217,558000,561600,12
217,561600,565200,12
217,565200,568800,12
217,568800,572400,11
217,572400,576000,11
217,576000,579600,12
217,579600,583200,13
217,583200,586800,12
217,586800,590400,12
217,590400,594000,12
217,594000,597600,12
217,597600,601200,12
217,601200,604800,12
217,604800,608400,12
217,608400,612000,12
217,612000,615600,11
217,615600,619200,12
217,619200,622800,12
217,622800,626400,12
217,626400,630000,12
217,630000,633600,11
217,633600,637200,11
217,637200,640800,12
217,640800,644400,12
217,644400,648000,12
215,0,3600,18
215,3600,7200,18
215,7200,10800,18
215,10800,14400,19
215,14400,18000,19
215,18000,21600,19
215,21600,25200,18
215,25200,28800,18
215,28800,32400,18
215,32400,36000,18
215,36000,39600,18
215,39600,43200,19
215,43200,46800,19
215,46800,50400,19
215,50400,54000,19
215,54000,57600,17
215,57600,61200,19
215,61200,64800,20
215,64800,68400,18
215,68400,72000,19
215,72000,75600,20
215,75600,79200,18
215,79200,82800,19
215,82800,86400,19
215,86400,90000,19
215,90000,93600,19
215,93600,97200,19
215,97200,100800,18
215,100800,104400,19
215,104400,108000,19
215,108000,111600,18
215,111600,115200,19
215,115200,118800,18
215,118800,122400,19
215,122400,126000,19
215,126000,129600,19
215,129600,133200,18
215,133200,136800,19
215,136800,140400,19
215,140400,144000,18
215,144000,147600,19
215,147600,151200,18
215,151200,154800,19
215,154800,158400,18
215,158400,162000,18
215,162000,165600,19
215,165600,169200,18
215,169200,172800,18
215,172800,176400,18
215,176400,180000,19
215,180000,183600,19
215,183600,187200,19
215,187200,190800,18
215,190800,194400,19
215,194400,198000,19
215,198000,201600,18
215,201600,205200,18
215,205200,208800,18
215,208800,212400,19
215,212400,216000,19
215,216000,219600,18
215,219600,223200,18
215,223200,226800,19
215,226800,230400,18
215,230400,234000,19
215,234000,237600,18
215,237600,241200,19
215,241200,244800,18
215,244800,248400,19
215,248400,252000,18
215,252000,255600,18
215,255600,259200,18
215,259200,262800,19
215,262800,266400,18
215,266400,270000,18
215,270000,273600,18
215,273600,277200,19
215,277200,280800,18
215,280800,284400,18
215,284400,288000,18
215,288000,291600,19
215,291600,295200,19
215,295200,298800,18
215,298800,302400,19
215,302400,306000,18
215,306000,309600,18
215,309600,313200,19
215,313200,316800,18
215,316800,320400,19
215,320400,324000,18
215,324000,327600,18
215,327600,331200,18
215,331200,334800,19
215,334800,338400,18
215,338400,342000,19
215,342000,345600,19
215,345600,349200,19
215,349200,352800,19
215,352800,356400,19
215,356400,360000,18
215,360000,363600,19
215,363600,367200,18
215,367200,370800,18
215,370800,374400,19
215,374400,378000,19
215,378000,381600,18
215,381600,385200,18
215,385200,388800,18
215,388800,392400,18
215,392400,396000,18
215,396000,399600,19
215,399600,403200,18
215,403200,406800,18
215,406800,410400,19
215,410400,414000,18
215,414000,417600,19
215,417600,421200,18
215,421200,424800,18
215,424800,428400,18
215,428400,432000,18
215,432000,435600,18
215,435600,439200,18
215,439200,442800,18
215,442800,446400,19
215,446400,450000,18
215,450000,453600,18
215,453600,457200,18
215,457200,460800,18
215,460800,464400,19
215,464400,468000,18
215,468000,471600,18
215,471600,475200,18
215,475200,478800,18
215,478800,482400,19
215,482400,486000,17
215,486000,489600,17
215,489600,493200,18
215,493200,496800,19
215,496800,500400,18
215,500400,504000,19
215,504000,507600,18
215,507600,511200,18
215,511200,514800,18
215,514800,518400,18
215,518400,522000,18
215,522000,525600,18
215,525600,529200,19
215,529200,532800,18
215,532800,536400,19
215,536400,540000,19
215,540000,543600,18
215,543600,547200,18
215,547200,550800,18
215,550800,554400,18
215,554400,558000,19
215,558000,561600,19
215,561600,565200,17
215,565200,568800,18
215,568800,572400,18
215,572400,576000,18
215,576000,579600,19
215,579600,583200,18
215,583200,586800,18
215,586800,590400,19
215,590400,594000,18
215,594000,597600,19
215,597600,601200,18
215,601200,604800,18
215,604800,608400,19
215,608400,612000,18
215,612000,615600,19
215,615600,619200,18
215,619200,622800,19
215,622800,626400,18
215,626400,630000,19
215,630000,633600,18
215,633600,637200,19
215,637200,640800,18
215,640800,644400,19
215,644400,648000,17
200,0,3600,15
200,3600,7200,15
200,7200,10800,13
200,10800,14400,14
200,14400,18000,14
200,18000,21600,16
200,21600,25200,14
200,25200,28800,14
200,28800,32400,14
200,32400,36000,13
200,36000,39600,14
200,39600,43200,13
200,43200,46800,13
200,46800,50400,13
200,50400,54000,13
200,54000,57600,13
200,57600,61200,14
200,61200,64800,14
200,64800,68400,14
200,68400,72000,14
200,72000,75600,15
200,75600,79200,14
200,79200,82800,15
200,82800,86400,14
200,86400,90000,15
200,90000,93600,16
200,93600,97200,15
200,97200,100800,16
200,100800,104400,16
200,104400,108000,16
200,108000,111600,16
200,111600,115200,19
200,115200,118800,17
200,118800,122400,16
200,122400,126000,16
200,126000,129600,16
200,129600,133200,16
200,133200,136800,15
200,136800,140400,15
200,140400,144000,15
200,144000,147600,13
200,147600,151200,15
200,151200,154800,13
200,154800,158400,14
200,158400,162000,14
200,162000,165600,15
200,165600,169200,15
200,169200,172800,13
200,172800,176400,12
200,176400,180000,15
200,180000,183600,14
200,183600,187200,14
200,187200,190800,13
200,190800,194400,13
200,194400,198000,13
200,198000,201600,13
200,201600,205200,14
200,205200,208800,14
200,208800,212400,15
200,212400,216000,15
200,216000,219600,15
200,219600,223200,16
200,223200,226800,15
200,226800,230400,14
200,230400,234000,15
200,234000,237600,15
200,237600,241200,15
200,241200,244800,15
200,244800,248400,15
200,248400,252000,15
200,252000,255600,15
200,255600,259200,15
200,259200,262800,14
200,262800,266400,14
200,266400,270000,14
200,270000,273600,14
200,273600,277200,15
200,277200,280800,14
200,280800,284400,14
200,284400,288000,14
200,288000,291600,14
200,291600,295200,15
200,295200,298800,15
200,298800,302400,16
200,302400,306000,16
200,306000,309600,16
200,309600,313200,16
200,313200,316800,16
200,316800,320400,16
200,320400,324000,17
200,324000,327600,15
200,327600,331200,15
200,331200,334800,15
200,334800,338400,15
200,338400,342000,15
200,342000,345600,16
200,345600,349200,14
200,349200,352800,15
200,352800,356400,15
200,356400,360000,14
200,360000,363600,15
200,363600,367200,15
200,367200,370800,14
200,370800,374400,14
200,374400,378000,14
200,378000,381600,12
200,381600,385200,13
200,385200,388800,14
200,388800,392400,12
200,392400,396000,13
200,396000,399600,14
200,399600,403200,13
200,403200,406800,14
200,406800,410400,14
200,410400,414000,15
200,414000,417600,14
200,417600,421200,13
200,421200,424800,13
200,424800,428400,14
200,428400,432000,14
200,432000,435600,14
200,435600,439200,15
200,439200,442800,14
200,442800,446400,14
200,446400,450000,15
200,450000,453600,15
200,453600,457200,15
200,457200,460800,14
200,460800,464400,14
200,464400,468000,14
200,468000,471600,14
200,471600,475200,15
200,475200,478800,14
200,478800,482400,13
200,482400,486000,14
200,486000,489600,14
200,489600,493200,14
200,493200,496800,15
200,496800,500400,14
200,500400,504000,14
200,504000,507600,14
200,507600,511200,14
200,511200,514800,15
200,514800,518400,15
200,518400,522000,14
200,522000,525600,14
200,525600,529200,15
200,529200,532800,15
200,532800,536400,15
200,536400,540000,14
200,540000,543600,14
200,543600,547200,13
200,547200,550800,14
200,550800,554400,14
200,554400,558000,13
200,558000,561600,12
200,561600,565200,12
200,565200,568800,13
200,568800,572400,14
200,572400,576000,13
200,576000,579600,13
200,579600,583200,13
200,583200,586800,12
200,586800,590400,13
200,590400,594000,12
200,594000,597600,13
200,597600,601200,13
200,601200,604800,12
200,604800,608400,12
200,608400,612000,12
200,612000,615600,14
200,615600,619200,13
200,619200,622800,14
200,622800,626400,12
200,626400,630000,14
200,630000,633600,14
200,633600,637200,13
200,637200,640800,12
200,640800,644400,13
200,644400,648000,13
223,0,3600,13
223,3600,7200,14
223,7200,10800,13
223,10800,14400,13
223,14400,18000,13
223,18000,21600,13
223,21600,25200,13
223,25200,28800,13
223,28800,32400,13
223,32400,36000,13
223,36000,39600,13
223,39600,43200,14
223,43200,46800,13
223,46800,50400,13
223,50400,54000,14
223,54000,57600,13
223,57600,61200,13
223,61200,64800,13
223,64800,68400,14
223,68400,72000,13
223,72000,75600,14
223,75600,79200,13
223,79200,82800,13
223,82800,86400,13
223,86400,90000,13
223,90000,93600,14
223,93600,97200,14
223,97200,100800,13
223,100800,104400,13
223,104400,108000,13
223,108000,111600,14
223,111600,115200,14
223,115200,118800,13
223,118800,122400,13
223,122400,126000,14
223,126000,129600,13
223,129600,133200,14
223,133200,136800,13
223,136800,140400,13
223,140400,144000,14
223,144000,147600,14
223,147600,151200,14
223,151200,154800,14
223,154800,158400,14
223,158400,162000,14
223,162000,165600,14
223,165600,169200,15
223,169200,172800,14
223,172800,176400,14
223,176400,180000,14
223,180000,183600,13
223,183600,187200,14
223,187200,190800,14
223,190800,194400,14
223,194400,198000,14
223,198000,201600,15
223,201600,205200,15
223,205200,208800,15
223,208800,212400,16
223,212400,216000,18
223,216000,219600,18
223,219600,223200,18
223,223200,226800,17
223,226800,230400,14
223,230400,234000,15
223,234000,237600,15
223,237600,241200,14
223,241200,244800,14
223,244800,248400,15
223,248400,252000,14
223,252000,255600,14
223,255600,259200,14
223,259200,262800,14
223,262800,266400,14
223,266400,270000,15
223,270000,273600,14
223,273600,277200,15
223,277200,280800,15
223,280800,284400,14
223,284400,288000,14
223,288000,291600,14
223,291600,295200,14
223,295200,298800,14
223,298800,302400,14
223,302400,306000,14
223,306000,309600,14
223,309600,313200,14
223,313200,316800,14
223,316800,320400,15
223,320400,324000,14
223,324000,327600,15
223,327600,331200,14
223,331200,334800,15
223,334800,338400,14
223,338400,342000,14
223,342000,345600,14
223,345600,349200,14
223,349200,352800,13
223,352800,356400,15
223,356400,360000,14
223,360000,363600,14
223,363600,367200,13
223,367200,370800,14
223,370800,374400,14
223,374400,378000,16
223,378000,381600,17
223,381600,385200,18
223,385200,388800,16
223,388800,392400,13
223,392400,396000,14
223,396000,399600,14
223,399600,403200,14
223,403200,406800,14
223,406800,410400,14
223,410400,414000,14
223,414000,417600,14
223,417600,421200,14
223,421200,424800,14
223,424800,428400,14
223,428400,432000,15
223,432000,435600,14
223,435600,439200,14
223,439200,442800,14
223,442800,446400,14
223,446400,450000,14
223,450000,453600,14
223,453600,457200,14
223,457200,460800,15
223,460800,464400,14
223,464400,468000,15
223,468000,471600,14
223,471600,475200,14
223,475200,478800,14
223,478800,482400,14
223,482400,486000,14
223,486000,489600,14
223,489600,493200,14
223,493200,496800,14
223,496800,500400,14
223,500400,504000,14
223,504000,507600,14
223,507600,511200,14
223,511200,514800,14
223,514800,518400,14
223,518400,522000,14
223,522000,525600,14
223,525600,529200,14
223,529200,532800,14
223,532800,536400,13
223,536400,540000,13
223,540000,543600,14
223,543600,547200,14
223,547200,550800,15
223,550800,554400,12
223,554400,558000,14
223,558000,561600,14
223,561600,565200,15
223,565200,568800,14
223,568800,572400,14
223,572400,576000,14
223,576000,579600,13
223,579600,583200,14
223,583200,586800,15
223,586800,590400,14
223,590400,594000,14
223,594000,597600,14
223,597600,601200,14
223,601200,604800,14
223,604800,608400,14
223,608400,612000,14
223,612000,615600,14
223,615600,619200,13
223,619200,622800,14
223,622800,626400,14
223,626400,630000,15
223,630000,633600,14
223,633600,637200,13
223,637200,640800,14
223,640800,644400,14
223,644400,648000,14
111,0,3600,12
111,3600,7200,11
111,7200,10800,11
111,10800,14400,11
111,14400,18000,12
111,18000,21600,11
111,21600,25200,11
111,25200,28800,11
111,28800,32400,11
111,32400,36000,11
111,36000,39600,11
111,39600,43200,11
111,43200,46800,11
111,46800,50400,12
111,50400,54000,11
111,54000,57600,12
111,57600,61200,11
111,61200,64800,11
111,64800,68400,12
111,68400,72000,12
111,72000,75600,11
111,75600,79200,11
111,79200,82800,12
111,82800,86400,11
111,86400,90000,11
111,90000,93600,12
111,93600,97200,11
111,97200,100800,11
111,100800,104400,12
111,104400,108000,11
111,108000,111600,12
111,111600,115200,11
111,115200,118800,11
111,118800,122400,12
111,122400,126000,11
111,126000,129600,11
111,129600,133200,11
111,133200,136800,11
111,136800,140400,12
111,140400,144000,11
111,144000,147600,12
111,147600,151200,11
111,151200,154800,11
111,154800,158400,11
111,158400,162000,12
111,162000,165600,11
111,165600,169200,12
111,169200,172800,11
111,172800,176400,11
111,176400,180000,12
111,180000,183600,11
111,183600,187200,11
111,187200,190800,12
111,190800,194400,11
111,194400,198000,11
111,198000,201600,12
111,201600,205200,12
111,205200,208800,12
111,208800,212400,12
111,212400,216000,12
111,216000,219600,12
111,219600,223200,12
111,223200,226800,11
111,226800,230400,11
111,230400,234000,12
111,234000,237600,11
111,237600,241200,12
111,241200,244800,11
111,244800,248400,12
111,248400,252000,11
111,252000,255600,11
111,255600,259200,12
111,259200,262800,11
111,262800,266400,12
111,266400,270000,11
111,270000,273600,11
111,273600,277200,12
111,277200,280800,11
111,280800,284400,11
111,284400,288000,12
111,288000,291600,11
111,291600,295200,11
111,295200,298800,12
111,298800,302400,12
111,302400,306000,12
111,306000,309600,11
111,309600,313200,11
111,313200,316800,12
111,316800,320400,12
111,320400,324000,12
111,324000,327600,12
111,327600,331200,12
111,331200,334800,12
111,334800,338400,11
111,338400,342000,12
111,342000,345600,11
111,345600,349200,11
111,349200,352800,11
111,352800,356400,11
111,356400,360000,12
111,360000,363600,12
111,363600,367200,11
111,367200,370800,12
111,370800,374400,11
111,374400,378000,12
111,378000,381600,11
111,381600,385200,12
111,385200,388800,11
111,388800,392400,12
111,392400,396000,11
111,396000,399600,11
111,399600,403200,11
111,403200,406800,11
111,406800,410400,12
111,410400,414000,11
111,414000,417600,12
111,417600,421200,11
111,421200,424800,11
111,424800,428400,11
111,428400,432000,10
111,432000,435600,11
111,435600,439200,11
111,439200,442800,11
111,442800,446400,11
111,446400,450000,12
111,450000,453600,11
111,453600,457200,12
111,457200,460800,12
111,460800,464400,12
111,464400,468000,12
111,468000,471600,12
111,471600,475200,11
111,475200,478800,11
111,478800,482400,11
111,482400,486000,12
111,486000,489600,12
111,489600,493200,12
111,493200,496800,12
111,496800,500400,12
111,500400,504000,12
111,504000,507600,13
111,507600,511200,12
111,511200,514800,12
111,514800,518400,12
111,518400,522000,12
111,522000,525600,12
111,525600,529200,11
111,529200,532800,12
111,532800,536400,12
111,536400,540000,12
111,540000,543600,11
111,543600,547200,11
111,547200,550800,12
111,550800,554400,12
111,554400,558000,12
111,558000,561600,12
111,561600,565200,12
111,565200,568800,12
111,568800,572400,12
111,572400,576000,11
111,576000,579600,11
111,579600,583200,11
111,583200,586800,12
111,586800,590400,13
111,590400,594000,12
111,594000,597600,12
111,597600,601200,11
111,601200,604800,12
111,604800,608400,12
111,608400,612000,12
111,612000,615600,11
111,615600,619200,11
111,619200,622800,13
111,622800,626400,12
111,626400,630000,13
111,630000,633600,13
111,633600,637200,13
111,637200,640800,12
111,640800,644400,12
111,644400,648000,13
124,0,3600,8
124,3600,7200,8
124,7200,10800,8
124,10800,14400,8
124,14400,18000,8
124,18000,21600,8
124,21600,25200,7
124,25200,28800,8
124,28800,32400,8
124,32400,36000,8
124,36000,39600,8
124,39600,43200,8
124,43200,46800,8
124,46800,50400,8
124,50400,54000,8
124,54000,57600,9
124,57600,61200,8
124,61200,64800,8
124,64800,68400,8
124,68400,72000,8
124,72000,75600,8
124,75600,79200,8
124,79200,82800,8
124,82800,86400,9
124,86400,90000,8
124,90000,93600,8
124,93600,97200,9
124,97200,100800,8
124,100800,104400,9
124,104400,108000,11
124,108000,111600,10
124,111600,115200,10
124,115200,118800,9
124,118800,122400,10
124,122400,126000,9
124,126000,129600,9
124,129600,133200,10
124,133200,136800,9
124,136800,140400,9
124,140400,144000,9
124,144000,147600,8
124,147600,151200,8
124,151200,154800,9
124,154800,158400,9
124,158400,162000,8
124,162000,165600,8
124,165600,169200,9
124,169200,172800,8
124,172800,176400,9
124,176400,180000,8
124,180000,183600,8
124,183600,187200,8
124,187200,190800,9
124,190800,194400,9
124,194400,198000,9
124,198000,201600,9
124,201600,205200,9
124,205200,208800,9
124,208800,212400,9
124,212400,216000,9
124,216000,219600,9
124,219600,223200,10
124,223200,226800,9
124,226800,230400,9
124,230400,234000,9
124,234000,237600,9
124,237600,241200,9
124,241200,244800,8
124,244800,248400,8
124,248400,252000,8
124,252000,255600,9
124,255600,259200,9
124,259200,262800,8
124,262800,266400,8
124,266400,270000,8
124,270000,273600,9
124,273600,277200,9
124,277200,280800,9
124,280800,284400,9
124,284400,288000,8
124,288000,291600,9
124,291600,295200,9
124,295200,298800,9
124,298800,302400,8
124,302400,306000,9
124,306000,309600,9
124,309600,313200,9
124,313200,316800,8
124,316800,320400,9
124,320400,324000,8
124,324000,327600,8
124,327600,331200,9
124,331200,334800,9
124,334800,338400,9
124,338400,342000,8
124,342000,345600,9
124,345600,349200,8
124,349200,352800,9
124,352800,356400,8
124,356400,360000,7
124,360000,363600,9
124,363600,367200,8
124,367200,370800,8
124,370800,374400,9
124,374400,378000,8
124,378000,381600,9
124,381600,385200,9
124,385200,388800,9
124,388800,392400,8
124,392400,396000,9
124,396000,399600,8
124,399600,403200,8
124,403200,406800,8
124,406800,410400,9
124,410400,414000,8
124,414000,417600,9
124,417600,421200,8
124,421200,424800,8
124,424800,428400,8
124,428400,432000,8
124,432000,435600,9
124,435600,439200,9
124,439200,442800,8
124,442800,446400,8
124,446400,450000,9
124,450000,453600,8
124,453600,457200,8
124,457200,460800,9
124,460800,464400,8
124,464400,468000,9
124,468000,471600,8
124,471600,475200,10
124,475200,478800,9
124,478800,482400,9
124,482400,486000,9
124,486000,489600,9
124,489600,493200,9
124,493200,496800,9
124,496800,500400,9
124,500400,504000,9
124,504000,507600,10
124,507600,511200,9
124,511200,514800,9
124,514800,518400,9
124,518400,522000,9
124,522000,525600,9
124,525600,529200,9
124,529200,532800,10
124,532800,536400,9
124,536400,540000,10
124,540000,543600,10
124,543600,547200,10
124,547200,550800,9
124,550800,554400,9
124,554400,558000,9
124,558000,561600,10
124,561600,565200,9
124,565200,568800,8
124,568800,572400,10
124,572400,576000,9
124,576000,579600,10
124,579600,583200,9
124,583200,586800,9
124,586800,590400,10
124,590400,594000,9
124,594000,597600,9
124,597600,601200,10
124,601200,604800,10
124,604800,608400,10
124,608400,612000,10
124,612000,615600,10
124,615600,619200,11
124,619200,622800,10
124,622800,626400,10
124,626400,630000,9
124,630000,633600,9
124,633600,637200,9
124,637200,640800,9
124,640800,644400,10
124,644400,648000,9
119,0,3600,10
119,3600,7200,10
119,7200,10800,10
119,10800,14400,12
119,14400,18000,11
119,18000,21600,10
119,21600,25200,11
119,25200,28800,11
119,28800,32400,11
119,32400,36000,10
119,36000,39600,10
119,39600,43200,11
119,43200,46800,11
119,46800,50400,10
119,50400,54000,11
119,54000,57600,11
119,57600,61200,11
119,61200,64800,11
119,64800,68400,10
119,68400,72000,11
119,72000,75600,10
119,75600,79200,10
119,79200,82800,11
119,82800,86400,11
119,86400,90000,11
119,90000,93600,11
119,93600,97200,10
119,97200,100800,10
119,100800,104400,10
119,104400,108000,10
119,108000,111600,7
119,111600,115200,11
119,115200,118800,11
119,118800,122400,11
119,122400,126000,11
119,126000,129600,11
119,129600,133200,11
119,133200,136800,11
119,136800,140400,11
119,140400,144000,11
119,144000,147600,11
119,147600,151200,11
119,151200,154800,11
119,154800,158400,10
119,158400,162000,10
119,162000,165600,11
119,165600,169200,11
119,169200,172800,10
119,172800,176400,11
119,176400,180000,11
119,180000,183600,11
119,183600,187200,11
119,187200,190800,11
119,190800,194400,11
119,194400,198000,11
119,198000,201600,11
119,201600,205200,11
119,205200,208800,11
119,208800,212400,11
119,212400,216000,11
119,216000,219600,11
119,219600,223200,11
119,223200,226800,11
119,226800,230400,11
119,230400,234000,11
119,234000,237600,10
119,237600,241200,10
119,241200,244800,11
119,244800,248400,11
119,248400,252000,11
119,252000,255600,11
119,255600,259200,10
119,259200,262800,11
119,262800,266400,11
119,266400,270000,11
119,270000,273600,10
119,273600,277200,11
119,277200,280800,10
119,280800,284400,11
119,284400,288000,10
119,288000,291600,11
119,291600,295200,11
119,295200,298800,11
119,298800,302400,11
119,302400,306000,11
119,306000,309600,11
119,309600,313200,11
119,313200,316800,11
119,316800,320400,11
119,320400,324000,9
119,324000,327600,11
119,327600,331200,11
119,331200,334800,10
119,334800,338400,11
119,338400,342000,11
119,342000,345600,8
119,345600,349200,11
119,349200,352800,10
119,352800,356400,11
119,356400,360000,11
119,360000,363600,11
119,363600,367200,11
119,367200,370800,11
119,370800,374400,11
119,374400,378000,11
119,378000,381600,11
119,381600,385200,11
119,385200,388800,10
119,388800,392400,10
119,392400,396000,10
119,396000,399600,12
119,399600,403200,10
119,403200,406800,11
119,406800,410400,12
119,410400,414000,11
119,414000,417600,12
119,417600,421200,11
119,421200,424800,11
119,424800,428400,11
119,428400,432000,12
119,432000,435600,12
119,435600,439200,13
119,439200,442800,11
119,442800,446400,10
119,446400,450000,10
119,450000,453600,10
119,453600,457200,11
119,457200,460800,10
119,460800,464400,11
119,464400,468000,11
119,468000,471600,10
119,471600,475200,11
119,475200,478800,10
119,478800,482400,11
119,482400,486000,12
119,486000,489600,10
119,489600,493200,12
119,493200,496800,9
119,496800,500400,11
119,500400,504000,11
119,504000,507600,10
119,507600,511200,11
119,511200,514800,11
119,514800,518400,9
119,518400,522000,10
119,522000,525600,7
119,525600,529200,7
119,529200,532800,11
119,532800,536400,10
119,536400,540000,11
119,540000,543600,11
119,543600,547200,9
119,547200,550800,11
119,550800,554400,12
119,554400,558000,12
119,558000,561600,11
119,561600,565200,10
119,565200,568800,12
119,568800,572400,11
119,572400,576000,12
119,576000,579600,11
119,579600,583200,10
119,583200,586800,10
119,586800,590400,11
119,590400,594000,10
119,594000,597600,10
119,597600,601200,11
119,601200,604800,10
119,604800,608400,11
119,608400,612000,11
119,612000,615600,11
119,615600,619200,10
119,619200,622800,10
119,622800,626400,11
119,626400,630000,11
119,630000,633600,10
119,633600,637200,10
119,637200,640800,11
119,640800,644400,10
119,644400,648000,11
234,0,3600,15
234,3600,7200,15
234,7200,10800,15
234,10800,14400,15
234,14400,18000,16
234,18000,21600,15
234,21600,25200,16
234,25200,28800,15
234,28800,32400,16
234,32400,36000,15
234,36000,39600,16
234,39600,43200,15
234,43200,46800,16
234,46800,50400,15
234,50400,54000,15
234,54000,57600,16
234,57600,61200,15
234,61200,64800,16
234,64800,68400,15
234,68400,72000,15
234,72000,75600,15
234,75600,79200,15
234,79200,82800,16
234,82800,86400,15
234,86400,90000,15
234,90000,93600,15
234,93600,97200,15
234,97200,100800,16
234,100800,104400,15
234,104400,108000,15
234,108000,111600,16
234,111600,115200,15
234,115200,118800,15
234,118800,122400,15
234,122400,126000,15
234,126000,129600,15
234,129600,133200,15
234,133200,136800,15
234,136800,140400,15
234,140400,144000,15
234,144000,147600,15
234,147600,151200,15
234,151200,154800,15
234,154800,158400,15
234,158400,162000,15
234,162000,165600,15
234,165600,169200,16
234,169200,172800,15
234,172800,176400,16
234,176400,180000,15
234,180000,183600,16
234,183600,187200,15
234,187200,190800,16
234,190800,194400,15
234,194400,198000,15
234,198000,201600,16
234,201600,205200,15
234,205200,208800,15
234,208800,212400,15
234,212400,216000,15
234,216000,219600,15
234,219600,223200,16
234,223200,226800,15
234,226800,230400,15
234,230400,234000,15
234,234000,237600,15
234,237600,241200,15
234,241200,244800,15
234,244800,248400,15
234,248400,252000,15
234,252000,255600,15
234,255600,259200,15
234,259200,262800,15
234,262800,266400,15
234,266400,270000,15
234,270000,273600,15
234,273600,277200,15
234,277200,280800,15
234,280800,284400,15
234,284400,288000,15
234,288000,291600,15
234,291600,295200,15
234,295200,298800,15
234,298800,302400,14
234,302400,306000,16
234,306000,309600,17
234,309600,313200,22
234,313200,316800,14
234,316800,320400,15
234,320400,324000,15
234,324000,327600,15
234,327600,331200,15
234,331200,334800,15
234,334800,338400,15
234,338400,342000,15
234,342000,345600,15
234,345600,349200,15
234,349200,352800,15
234,352800,356400,15
234,356400,360000,15
234,360000,363600,15
234,363600,367200,15
234,367200,370800,14
234,370800,374400,15
234,374400,378000,15
234,378000,381600,15
234,381600,385200,15
234,385200,388800,14
234,388800,392400,15
234,392400,396000,15
234,396000,399600,15
234,399600,403200,14
234,403200,406800,15
234,406800,410400,15
234,410400,414000,15
234,414000,417600,15
234,417600,421200,15
234,421200,424800,15
234,424800,428400,14
234,428400,432000,15
234,432000,435600,14
234,435600,439200,14
234,439200,442800,15
234,442800,446400,15
234,446400,450000,15
234,450000,453600,15
234,453600,457200,15
234,457200,460800,15
234,460800,464400,15
234,464400,468000,14
234,468000,471600,15
234,471600,475200,15
234,475200,478800,15
234,478800,482400,14
234,482400,486000,14
234,486000,489600,15
234,489600,493200,15
234,493200,496800,15
234,496800,500400,15
234,500400,504000,16
234,504000,507600,15
234,507600,511200,15
234,511200,514800,15
234,514800,518400,15
234,518400,522000,15
234,522000,525600,15
234,525600,529200,15
234,529200,532800,15
234,532800,536400,15
234,536400,540000,15
234,540000,543600,14
234,543600,547200,15
234,547200,550800,14
234,550800,554400,14
234,554400,558000,14
234,558000,561600,14
234,561600,565200,15
234,565200,568800,15
234,568800,572400,15
234,572400,576000,15
234,576000,579600,15
234,579600,583200,15
234,583200,586800,15
234,586800,590400,15
234,590400,594000,14
234,594000,597600,15
234,597600,601200,15
234,601200,604800,14
234,604800,608400,15
234,608400,612000,15
234,612000,615600,15
234,615600,619200,15
234,619200,622800,15
234,622800,626400,15
234,626400,630000,14
234,630000,633600,15
234,633600,637200,15
234,637200,640800,15
234,640800,644400,14
234,644400,648000,15
122,0,3600,15
122,3600,7200,15
122,7200,10800,15
122,10800,14400,14
122,14400,18000,14
122,18000,21600,14
122,21600,25200,15
122,25200,28800,14
122,28800,32400,14
122,32400,36000,14
122,36000,39600,15
122,39600,43200,14
122,43200,46800,13
122,46800,50400,14
122,50400,54000,14
122,54000,57600,15
122,57600,61200,13
122,61200,64800,14
122,64800,68400,12
122,68400,72000,13
122,72000,75600,14
122,75600,79200,14
122,79200,82800,14
122,82800,86400,14
122,86400,90000,14
122,90000,93600,14
122,93600,97200,13
122,97200,100800,13
122,100800,104400,13
122,104400,108000,13
122,108000,111600,13
122,111600,115200,14
122,115200,118800,14
122,118800,122400,14
122,122400,126000,13
122,126000,129600,13
122,129600,133200,14
122,133200,136800,14
122,136800,140400,16
122,140400,144000,16
122,144000,147600,15
122,147600,151200,15
122,151200,154800,14
122,154800,158400,14
122,158400,162000,13
122,162000,165600,14
122,165600,169200,14
122,169200,172800,13
122,172800,176400,13
122,176400,180000,13
122,180000,183600,15
122,183600,187200,13
122,187200,190800,12
122,190800,194400,12
122,194400,198000,13
122,198000,201600,12
122,201600,205200,12
122,205200,208800,12
122,208800,212400,12
122,212400,216000,13
122,216000,219600,14
122,219600,223200,14
122,223200,226800,15
122,226800,230400,14
122,230400,234000,13
122,234000,237600,13
122,237600,241200,13
122,241200,244800,13
122,244800,248400,14
122,248400,252000,15
122,252000,255600,14
122,255600,259200,14
122,259200,262800,13
122,262800,266400,13
122,266400,270000,13
122,270000,273600,12
122,273600,277200,13
122,277200,280800,13
122,280800,284400,13
122,284400,288000,14
122,288000,291600,13
122,291600,295200,13
122,295200,298800,13
122,298800,302400,14
122,302400,306000,13
122,306000,309600,13
122,309600,313200,12
122,313200,316800,13
122,316800,320400,14
122,320400,324000,13
122,324000,327600,14
122,327600,331200,14
122,331200,334800,13
122,334800,338400,13
122,338400,342000,13
122,342000,345600,13
122,345600,349200,13
122,349200,352800,13
122,352800,356400,13
122,356400,360000,13
122,360000,363600,12
122,363600,367200,12
122,367200,370800,13
122,370800,374400,14
122,374400,378000,14
122,378000,381600,13
122,381600,385200,14
122,385200,388800,13
122,388800,392400,13
122,392400,396000,14
122,396000,399600,12
122,399600,403200,12
122,403200,406800,12
122,406800,410400,13
122,410400,414000,13
122,414000,417600,12
122,417600,421200,12
122,421200,424800,13
122,424800,428400,12
122,428400,432000,13
122,432000,435600,13
122,435600,439200,14
122,439200,442800,13
122,442800,446400,13
122,446400,450000,12
122,450000,453600,13
122,453600,457200,14
122,457200,460800,13
122,460800,464400,13
122,464400,468000,14
122,468000,471600,13
122,471600,475200,13
122,475200,478800,14
122,478800,482400,14
122,482400,486000,14
122,486000,489600,15
122,489600,493200,15
122,493200,496800,13
122,496800,500400,13
122,500400,504000,13
122,504000,507600,13
122,507600,511200,13
122,511200,514800,13
122,514800,518400,13
122,518400,522000,13
122,522000,525600,14
122,525600,529200,14
122,529200,532800,13
122,532800,536400,13
122,536400,540000,13
122,540000,543600,14
122,543600,547200,14
122,547200,550800,14
122,550800,554400,13
122,554400,558000,13
122,558000,561600,12
122,561600,565200,12
122,565200,568800,13
122,568800,572400,14
122,572400,576000,14
122,576000,579600,14
122,579600,583200,13
122,583200,586800,14
122,586800,590400,14
122,590400,594000,13
122,594000,597600,14
122,597600,601200,14
122,601200,604800,14
122,604800,608400,14
122,608400,612000,13
122,612000,615600,12
122,615600,619200,13
122,619200,622800,14
122,622800,626400,14
122,626400,630000,13
122,630000,633600,14
122,633600,637200,15
122,637200,640800,14
122,640800,644400,14
122,644400,648000,14
107,0,3600,11
107,3600,7200,12
107,7200,10800,12
107,10800,14400,12
107,14400,18000,11
107,18000,21600,12
107,21600,25200,12
107,25200,28800,12
107,28800,32400,12
107,32400,36000,11
107,36000,39600,12
107,39600,43200,12
107,43200,46800,11
107,46800,50400,11
107,50400,54000,12
107,54000,57600,12
107,57600,61200,12
107,61200,64800,11
107,64800,68400,12
107,68400,72000,12
107,72000,75600,12
107,75600,79200,11
107,79200,82800,12
107,82800,86400,12
107,86400,90000,12
107,90000,93600,12
107,93600,97200,11
107,97200,100800,12
107,100800,104400,12
107,104400,108000,11
107,108000,111600,11
107,111600,115200,12
107,115200,118800,12
107,118800,122400,11
107,122400,126000,12
107,126000,129600,12
107,129600,133200,12
107,133200,136800,11
107,136800,140400,11
107,140400,144000,12
107,144000,147600,12
107,147600,151200,11
107,151200,154800,11
107,154800,158400,12
107,158400,162000,12
107,162000,165600,11
107,165600,169200,11
107,169200,172800,12
107,172800,176400,12
107,176400,180000,12
107,180000,183600,11
107,183600,187200,12
107,187200,190800,12
107,190800,194400,12
107,194400,198000,11
107,198000,201600,12
107,201600,205200,12
107,205200,208800,12
107,208800,212400,11
107,212400,216000,12
107,216000,219600,12
107,219600,223200,12
107,223200,226800,12
107,226800,230400,11
107,230400,234000,11
107,234000,237600,12
107,237600,241200,12
107,241200,244800,12
107,244800,248400,11
107,248400,252000,12
107,252000,255600,12
107,255600,259200,12
107,259200,262800,11
107,262800,266400,12
107,266400,270000,12
107,270000,273600,12
107,273600,277200,12
107,277200,280800,11
107,280800,284400,12
107,284400,288000,12
107,288000,291600,12
107,291600,295200,12
107,295200,298800,12
107,298800,302400,11
107,302400,306000,11
107,306000,309600,11
107,309600,313200,12
107,313200,316800,12
107,316800,320400,12
107,320400,324000,12
107,324000,327600,11
107,327600,331200,11
107,331200,334800,12
107,334800,338400,12
107,338400,342000,12
107,342000,345600,12
107,345600,349200,11
107,349200,352800,11
107,352800,356400,11
107,356400,360000,11
107,360000,363600,12
107,363600,367200,11
107,367200,370800,12
107,370800,374400,12
107,374400,378000,12
107,378000,381600,12
107,381600,385200,12
107,385200,388800,12
107,388800,392400,11
107,392400,396000,11
107,396000,399600,12
107,399600,403200,12
107,403200,406800,12
107,406800,410400,12
107,410400,414000,12
107,414000,417600,12
107,417600,421200,12
107,421200,424800,12
107,424800,428400,12
107,428400,432000,12
107,432000,435600,12
107,435600,439200,12
107,439200,442800,12
107,442800,446400,11
107,446400,450000,12
107,450000,453600,12
107,453600,457200,12
107,457200,460800,12
107,460800,464400,11
107,464400,468000,12
107,468000,471600,12
107,471600,475200,12
107,475200,478800,11
107,478800,482400,12
107,482400,486000,12
107,486000,489600,12
107,489600,493200,11
107,493200,496800,12
107,496800,500400,12
107,500400,504000,12
107,504000,507600,12
107,507600,511200,12
107,511200,514800,13
107,514800,518400,12
107,518400,522000,12
107,522000,525600,11
107,525600,529200,12
107,529200,532800,12
107,532800,536400,12
107,536400,540000,11
107,540000,543600,13
107,543600,547200,11
107,547200,550800,12
107,550800,554400,12
107,554400,558000,12
107,558000,561600,12
107,561600,565200,12
107,565200,568800,12
107,568800,572400,13
107,572400,576000,11
107,576000,579600,12
107,579600,583200,12
107,583200,586800,12
107,586800,590400,11
107,590400,594000,12
107,594000,597600,12
107,597600,601200,12
107,601200,604800,11
107,604800,608400,12
107,608400,612000,12
107,612000,615600,12
107,615600,619200,12
107,619200,622800,11
107,622800,626400,12
107,626400,630000,12
107,630000,633600,12
107,633600,637200,12
107,637200,640800,12
107,640800,644400,11
107,644400,648000,11
228,0,3600,12
228,3600,7200,13
228,7200,10800,12
228,10800,14400,11
228,14400,18000,13
228,18000,21600,10
228,21600,25200,14
228,25200,28800,12
228,28800,32400,12
228,32400,36000,12
228,36000,39600,12
228,39600,43200,12
228,43200,46800,11
228,46800,50400,12
228,50400,54000,11
228,54000,57600,12
228,57600,61200,12
228,61200,64800,12
228,64800,68400,11
228,68400,72000,12
228,72000,75600,11
228,75600,79200,11
228,79200,82800,12
228,82800,86400,11
228,86400,90000,12
228,90000,93600,12
228,93600,97200,12
228,97200,100800,12
228,100800,104400,14
228,104400,108000,12
228,108000,111600,12
228,111600,115200,12
228,115200,118800,14
228,118800,122400,13
228,122400,126000,12
228,126000,129600,11
228,129600,133200,10
228,133200,136800,11
228,136800,140400,12
228,140400,144000,12
228,144000,147600,12
228,147600,151200,12
228,151200,154800,11
228,154800,158400,10
228,158400,162000,11
228,162000,165600,12
228,165600,169200,12
228,169200,172800,11
228,172800,176400,11
228,176400,180000,10
228,180000,183600,11
228,183600,187200,11
228,187200,190800,11
228,190800,194400,11
228,194400,198000,11
228,198000,201600,11
228,201600,205200,11
228,205200,208800,12
228,208800,212400,11
228,212400,216000,12
228,216000,219600,12
228,219600,223200,11
228,223200,226800,11
228,226800,230400,11
228,230400,234000,12
228,234000,237600,11
228,237600,241200,12
228,241200,244800,11
228,244800,248400,11
228,248400,252000,11
228,252000,255600,11
228,255600,259200,12
228,259200,262800,11
228,262800,266400,11
228,266400,270000,11
228,270000,273600,11
228,273600,277200,11
228,277200,280800,11
228,280800,284400,11
228,284400,288000,11
228,288000,291600,12
228,291600,295200,11
228,295200,298800,12
228,298800,302400,12
228,302400,306000,11
228,306000,309600,11
228,309600,313200,11
228,313200,316800,11
228,316800,320400,11
228,320400,324000,11
228,324000,327600,11
228,327600,331200,11
228,331200,334800,10
228,334800,338400,10
228,338400,342000,11
228,342000,345600,11
228,345600,349200,11
228,349200,352800,12
228,352800,356400,10
228,356400,360000,10
228,360000,363600,11
228,363600,367200,10
228,367200,370800,11
228,370800,374400,11
228,374400,378000,10
228,378000,381600,10
228,381600,385200,11
228,385200,388800,11
228,388800,392400,11
228,392400,396000,11
228,396000,399600,11
228,399600,403200,10
228,403200,406800,11
228,406800,410400,11
228,410400,414000,10
228,414000,417600,11
228,417600,421200,10
228,421200,424800,10
228,424800,428400,10
228,428400,432000,11
228,432000,435600,11
228,435600,439200,11
228,439200,442800,10
228,442800,446400,10
228,446400,450000,11
228,450000,453600,13
228,453600,457200,12
228,457200,460800,12
228,460800,464400,12
228,464400,468000,10
228,468000,471600,9
228,471600,475200,9
228,475200,478800,12
228,478800,482400,12
228,482400,486000,12
228,486000,489600,11
228,489600,493200,12
228,493200,496800,13
228,496800,500400,11
228,500400,504000,12
228,504000,507600,12
228,507600,511200,11
228,511200,514800,11
228,514800,518400,13
228,518400,522000,10
228,522000,525600,11
228,525600,529200,13
228,529200,532800,14
228,532800,536400,12
228,536400,540000,10
228,540000,543600,15
228,543600,547200,11
228,547200,550800,16
228,550800,554400,12
228,554400,558000,11
228,558000,561600,11
228,561600,565200,10
228,565200,568800,11
228,568800,572400,11
228,572400,576000,11
228,576000,579600,12
228,579600,583200,11
228,583200,586800,11
228,586800,590400,11
228,590400,594000,12
228,594000,597600,12
228,597600,601200,11
228,601200,604800,11
228,604800,608400,11
228,608400,612000,12
228,612000,615600,12
228,615600,619200,11
228,619200,622800,12
228,622800,626400,11
228,626400,630000,11
228,630000,633600,12
228,633600,637200,12
228,637200,640800,12
228,640800,644400,11
228,644400,648000,11
115,0,3600,10
115,3600,7200,11
115,7200,10800,10
115,10800,14400,10
115,14400,18000,10
115,18000,21600,11
115,21600,25200,10
115,25200,28800,11
115,28800,32400,10
115,32400,36000,11
115,36000,39600,10
115,39600,43200,11
115,43200,46800,10
115,46800,50400,11
115,50400,54000,11
115,54000,57600,10
115,57600,61200,11
115,61200,64800,10
115,64800,68400,11
115,68400,72000,10
115,72000,75600,10
115,75600,79200,11
115,79200,82800,11
115,82800,86400,11
115,86400,90000,11
115,90000,93600,9
115,93600,97200,10
115,97200,100800,11
115,100800,104400,10
115,104400,108000,11
115,108000,111600,10
115,111600,115200,10
115,115200,118800,10
115,118800,122400,11
115,122400,126000,10
115,126000,129600,11
115,129600,133200,11
115,133200,136800,10
115,136800,140400,11
115,140400,144000,10
115,144000,147600,11
115,147600,151200,10
115,151200,154800,11
115,154800,158400,11
115,158400,162000,11
115,162000,165600,11
115,165600,169200,11
115,169200,172800,9
115,172800,176400,10
115,176400,180000,10
115,180000,183600,10
115,183600,187200,11
115,187200,190800,10
115,190800,194400,10
115,194400,198000,11
115,198000,201600,11
115,201600,205200,10
115,205200,208800,11
115,208800,212400,11
115,212400,216000,11
115,216000,219600,11
115,219600,223200,11
115,223200,226800,10
115,226800,230400,11
115,230400,234000,12
115,234000,237600,10
115,237600,241200,11
115,241200,244800,11
115,244800,248400,11
115,248400,252000,11
115,252000,255600,10
115,255600,259200,10
115,259200,262800,11
115,262800,266400,11
115,266400,270000,11
115,270000,273600,10
115,273600,277200,11
115,277200,280800,11
115,280800,284400,11
115,284400,288000,12
115,288000,291600,10
115,291600,295200,11
115,295200,298800,11
115,298800,302400,11
115,302400,306000,10
115,306000,309600,11
115,309600,313200,12
115,313200,316800,9
115,316800,320400,11
115,320400,324000,10
115,324000,327600,12
115,327600,331200,10
115,331200,334800,11
115,334800,338400,11
115,338400,342000,10
115,342000,345600,11
115,345600,349200,10
115,349200,352800,10
115,352800,356400,10
115,356400,360000,12
115,360000,363600,11
115,363600,367200,11
115,367200,370800,11
115,370800,374400,11
115,374400,378000,11
115,378000,381600,11
115,381600,385200,12
115,385200,388800,10
115,388800,392400,10
115,392400,396000,10
115,396000,399600,10
115,399600,403200,10
115,403200,406800,10
115,406800,410400,11
115,410400,414000,11
115,414000,417600,12
115,417600,421200,12
115,421200,424800,11
115,424800,428400,10
115,428400,432000,10
115,432000,435600,11
115,435600,439200,11
115,439200,442800,10
115,442800,446400,11
115,446400,450000,12
115,450000,453600,10
115,453600,457200,12
115,457200,460800,11
115,460800,464400,11
115,464400,468000,14
115,468000,471600,12
115,471600,475200,10
115,475200,478800,11
115,478800,482400,12
115,482400,486000,10
115,486000,489600,11
115,489600,493200,11
115,493200,496800,11
115,496800,500400,11
115,500400,504000,12
115,504000,507600,12
115,507600,511200,10
115,511200,514800,10
115,514800,518400,12
115,518400,522000,12
115,522000,525600,10
115,525600,529200,11
115,529200,532800,10
115,532800,536400,10
115,536400,540000,11
115,540000,543600,11
115,543600,547200,10
115,547200,550800,11
115,550800,554400,11
115,554400,558000,9
115,558000,561600,10
115,561600,565200,11
115,565200,568800,12
115,568800,572400,11
115,572400,576000,11
115,576000,579600,12
115,579600,583200,9
115,583200,586800,10
115,586800,590400,10
115,590400,594000,12
115,594000,597600,12
115,597600,601200,9
115,601200,604800,9
115,604800,608400,9
115,608400,612000,9
115,612000,615600,9
115,615600,619200,12
115,619200,622800,12
115,622800,626400,12
115,626400,630000,12
115,630000,633600,10
115,633600,637200,9
115,637200,640800,10
115,640800,644400,10
115,644400,648000,13
207,0,3600,9
207,3600,7200,10
207,7200,10800,9
207,10800,14400,12
207,14400,18000,25
207,18000,21600,12
207,21600,25200,12
207,25200,28800,11
207,28800,32400,11
207,32400,36000,10
207,36000,39600,11
207,39600,43200,10
207,43200,46800,11
207,46800,50400,12
207,50400,54000,9
207,54000,57600,6
207,57600,61200,8
207,61200,64800,9
207,64800,68400,7
207,68400,72000,10
207,72000,75600,8
207,75600,79200,9
207,79200,82800,9
207,82800,86400,9
207,86400,90000,13
207,93600,97200,12
207,100800,104400,12
207,104400,108000,12
207,108000,111600,11
207,111600,115200,13
207,115200,118800,17
207,118800,122400,15
207,122400,126000,14
207,126000,129600,13
207,129600,133200,12
207,133200,136800,12
207,136800,140400,13
207,140400,144000,12
207,144000,147600,12
207,147600,151200,13
207,151200,154800,13
207,154800,158400,12
207,158400,162000,14
207,162000,165600,12
207,165600,169200,12
207,169200,172800,12
207,172800,176400,12
207,176400,180000,12
207,180000,183600,13
207,183600,187200,14
207,187200,190800,13
207,190800,194400,12
207,194400,198000,13
207,198000,201600,12
207,201600,205200,12
207,205200,208800,12
207,208800,212400,12
207,212400,216000,12
207,216000,219600,11
207,219600,223200,11
207,223200,226800,11
207,226800,230400,11
207,230400,234000,11
207,234000,237600,12
207,237600,241200,12
207,241200,244800,11
207,244800,248400,11
207,248400,252000,11
207,252000,255600,11
207,255600,259200,11
207,259200,262800,12
207,262800,266400,11
207,266400,270000,11
207,270000,273600,11
207,273600,277200,10
207,277200,280800,11
207,280800,284400,11
207,284400,288000,10
207,288000,291600,11
207,291600,295200,10
207,295200,298800,11
207,298800,302400,10
207,302400,306000,11
207,306000,309600,10
207,309600,313200,11
207,313200,316800,10
207,316800,320400,10
207,320400,324000,10
207,324000,327600,10
207,327600,331200,10
207,331200,334800,10
207,334800,338400,11
207,338400,342000,10
207,342000,345600,10
207,345600,349200,10
207,349200,352800,10
207,352800,356400,10
207,356400,360000,10
207,360000,363600,10
207,363600,367200,10
207,367200,370800,11
207,370800,374400,10
207,374400,378000,10
207,378000,381600,10
207,381600,385200,10
207,385200,388800,10
207,388800,392400,10
207,392400,396000,10
207,396000,399600,10
207,399600,403200,10
207,403200,406800,10
207,406800,410400,10
207,410400,414000,10
207,414000,417600,10
207,417600,421200,10
207,421200,424800,10
207,424800,428400,10
207,428400,432000,10
207,432000,435600,10
207,435600,439200,10
207,439200,442800,10
207,442800,446400,10
207,446400,450000,10
207,450000,453600,10
207,453600,457200,10
207,457200,460800,10
207,460800,464400,10
207,464400,468000,10
207,468000,471600,9
207,471600,475200,10
207,475200,478800,10
207,478800,482400,10
207,482400,486000,10
207,486000,489600,9
207,489600,493200,10
207,493200,496800,10
207,496800,500400,10
207,500400,504000,10
207,504000,507600,9
207,507600,511200,10
207,511200,514800,10
207,514800,518400,10
207,518400,522000,10
207,522000,525600,10
207,525600,529200,10
207,529200,532800,10
207,532800,536400,10
207,536400,540000,10
207,540000,543600,10
207,543600,547200,10
207,547200,550800,10
207,550800,554400,9
207,554400,558000,23
207,590400,594000,7
207,594000,597600,9
207,597600,601200,9
207,601200,604800,10
207,604800,608400,11
207,608400,612000,11
207,612000,615600,9
207,615600,619200,11
207,619200,622800,9
207,622800,626400,10
207,626400,630000,11
207,630000,633600,18
207,633600,637200,20
207,637200,640800,19
207,640800,644400,20
207,644400,648000,20
220,0,3600,11
220,3600,7200,11
220,7200,10800,12
220,10800,14400,11
220,14400,18000,13
220,18000,21600,11
220,21600,25200,12
220,25200,28800,12
220,28800,32400,12
220,32400,36000,12
220,36000,39600,12
220,39600,43200,12
220,43200,46800,11
220,46800,50400,11
220,50400,54000,11
220,54000,57600,12
220,57600,61200,12
220,61200,64800,12
220,64800,68400,12
220,68400,72000,12
220,72000,75600,12
220,75600,79200,12
220,79200,82800,11
220,82800,86400,11
220,86400,90000,11
220,90000,93600,12
220,93600,97200,11
220,97200,100800,11
220,100800,104400,12
220,104400,108000,11
220,108000,111600,12
220,111600,115200,12
220,115200,118800,12
220,118800,122400,12
220,122400,126000,12
220,126000,129600,11
220,129600,133200,11
220,133200,136800,11
220,136800,140400,11
220,140400,144000,12
220,144000,147600,13
220,147600,151200,17
220,151200,154800,11
220,154800,158400,12
220,158400,162000,11
220,162000,165600,11
220,165600,169200,11
220,169200,172800,11
220,172800,176400,11
220,176400,180000,11
220,180000,183600,11
220,183600,187200,11
220,187200,190800,11
220,190800,194400,11
220,194400,198000,10
220,198000,201600,11
220,201600,205200,11
220,205200,208800,11
220,208800,212400,11
220,212400,216000,10
220,216000,219600,11
220,219600,223200,11
220,223200,226800,12
220,226800,230400,12
220,230400,234000,15
220,234000,237600,10
220,237600,241200,10
220,241200,244800,10
220,244800,248400,10
220,248400,252000,10
220,252000,255600,11
220,255600,259200,10
220,259200,262800,11
220,262800,266400,11
220,266400,270000,11
220,270000,273600,11
220,273600,277200,10
220,277200,280800,11
220,280800,284400,11
220,284400,288000,11
220,288000,291600,10
220,291600,295200,10
220,295200,298800,11
220,298800,302400,11
220,302400,306000,11
220,306000,309600,12
220,309600,313200,10
220,313200,316800,10
220,316800,320400,11
220,320400,324000,10
220,324000,327600,10
220,327600,331200,11
220,331200,334800,11
220,334800,338400,11
220,338400,342000,10
220,342000,345600,10
220,345600,349200,11
220,349200,352800,10
220,352800,356400,10
